1100;1105;1110;1115;1120;1125;1130;1135;1140;1145;1150;1155;1160;1165;1170;1175;1180;1185;1190;1195;1200;1205;1210;1215;1220;1225;1230;1235;1240;1245;1250;1255;1260;1265;1270;1275;1280;1285;1290;1295;1301;1306;1311;1316;1321;1326;1331;1336;1341;1346;1351;1356;1361;1366;1371;1376;1381;1386;1391;1396;1401;1406;1411;1416;1421;1426;1431;1436;1441;1446;1451;1456;1461;1466;1471;1476;1481;1486;1491;1496;1502;1507;1512;1517;1522;1527;1532;1537;1542;1547;1552;1557;1562;1567;1572;1577;1582;1587;1592;1597;1602;1607;1612;1617;1622;1627;1632;1637;1642;1647;1652;1657;1662;1667;1672;1677;1682;1687;1692;1697;1703;1708;1713;1718;1723;1728;1733;1738;1743;1748;1753;1758;1763;1768;1773;1778;1783;1788;1793;1798;1803;1808;1813;1818;1823;1828;1833;1838;1843;1848;1853;1858;1863;1868;1873;1878;1883;1888;1893;1898;1904;1909;1914;1919;1924;1929;1934;1939;1944;1949;1954;1959;1964;1969;1974;1979;1984;1989;1994;1999;2004;2009;2014;2019;2024;2029;2034;2039;2044;2049;2054;2059;2064;2069;2074;2079;2084;2089;2094;2100
0.503961;0.503654;0.506600;0.506666;0.506900;0.510959;0.511712;0.509862;0.510557;0.512495;0.511939;0.513008;0.511040;0.510839;0.520593;0.510159;0.516314;0.516156;0.521932;0.518730;0.518677;0.523675;0.527864;0.522801;0.524287;0.524146;0.519975;0.525434;0.525948;0.527931;0.531097;0.532478;0.535333;0.533845;0.535959;0.533567;0.535764;0.536637;0.536204;0.532853;0.534896;0.537582;0.538158;0.541524;0.543047;0.542289;0.545834;0.543783;0.547715;0.543234;0.549439;0.549996;0.552735;0.551734;0.554725;0.551344;0.551825;0.554710;0.554544;0.558460;0.559610;0.560684;0.563267;0.565824;0.566136;0.565240;0.566819;0.563011;0.569535;0.573721;0.572546;0.578175;0.580003;0.582388;0.581616;0.586050;0.586339;0.582675;0.590574;0.593874;0.594514;0.594380;0.599063;0.600436;0.604460;0.606938;0.612316;0.608981;0.608049;0.612948;0.621144;0.621671;0.621326;0.630648;0.630215;0.637826;0.638659;0.640577;0.650395;0.649006;0.652389;0.654730;0.657229;0.659294;0.662728;0.667758;0.675298;0.677214;0.681049;0.685750;0.692183;0.692635;0.697292;0.701431;0.706191;0.716082;0.718257;0.719282;0.730395;0.732488;0.737612;0.738221;0.745406;0.755122;0.754764;0.759102;0.760645;0.764128;0.774902;0.778513;0.777963;0.785587;0.788876;0.795000;0.797751;0.805009;0.806886;0.817939;0.817822;0.816532;0.820863;0.827766;0.830229;0.831423;0.835072;0.842097;0.842828;0.839552;0.845765;0.845661;0.847359;0.848728;0.846528;0.839873;0.849529;0.849762;0.846404;0.846900;0.840633;0.839987;0.835796;0.837970;0.832135;0.828620;0.823753;0.823113;0.815238;0.812991;0.804990;0.800410;0.793491;0.784990;0.778947;0.776997;0.769522;0.764600;0.754968;0.745334;0.736639;0.727054;0.721513;0.714779;0.709704;0.695728;0.688899;0.686495;0.679682;0.670688;0.658319;0.655157;0.646294;0.641005;0.633667;0.627791;0.618286;0.615447;0.605253;0.605348;0.595604;0.590243
0.532739;0.533982;0.535463;0.536922;0.541855;0.544114;0.542851;0.542140;0.549080;0.560632;0.558778;0.558731;0.562427;0.568344;0.570391;0.571732;0.572402;0.579339;0.580094;0.589321;0.593510;0.594939;0.598733;0.605977;0.604277;0.608260;0.606979;0.616227;0.619753;0.616838;0.623053;0.631602;0.634105;0.634868;0.641082;0.640488;0.643277;0.643052;0.652025;0.649997;0.658520;0.657670;0.655830;0.658808;0.665823;0.665631;0.664066;0.669508;0.672579;0.674348;0.679282;0.680972;0.679128;0.678461;0.682430;0.687614;0.691052;0.688827;0.690905;0.688060;0.692690;0.699728;0.697509;0.698962;0.698088;0.698068;0.702945;0.705274;0.706004;0.707602;0.702365;0.709220;0.703363;0.713305;0.710597;0.709221;0.714738;0.710994;0.715900;0.714492;0.713872;0.716738;0.715356;0.718804;0.714459;0.716186;0.720085;0.720135;0.718725;0.722737;0.722357;0.721092;0.723277;0.721063;0.717338;0.725537;0.724633;0.724820;0.721668;0.723753;0.718897;0.727281;0.727376;0.724083;0.725316;0.724928;0.728607;0.719675;0.723337;0.724143;0.724982;0.723466;0.721867;0.719505;0.725369;0.721390;0.720695;0.721259;0.718783;0.722105;0.715269;0.715107;0.713199;0.714354;0.713574;0.713554;0.709084;0.711365;0.707369;0.700277;0.702308;0.694511;0.700140;0.693061;0.691900;0.688180;0.690601;0.687980;0.683362;0.683767;0.676106;0.672802;0.672507;0.671512;0.665532;0.664559;0.664250;0.659962;0.655139;0.656005;0.652177;0.650210;0.650065;0.643403;0.638107;0.639503;0.634087;0.632095;0.634725;0.625584;0.625775;0.625962;0.615929;0.614902;0.615614;0.610378;0.607731;0.603628;0.600313;0.596378;0.596503;0.589219;0.587222;0.586926;0.582918;0.578407;0.575371;0.575762;0.569902;0.565826;0.569347;0.560775;0.555845;0.558762;0.556248;0.553930;0.547417;0.544012;0.543117;0.537888;0.536562;0.532135;0.535599;0.528363;0.532070;0.528822;0.523995;0.516079;0.523224;0.518197
0.538693;0.538632;0.540093;0.541864;0.546610;0.544886;0.549933;0.553048;0.557412;0.557461;0.558318;0.567119;0.570132;0.571080;0.574439;0.577355;0.579852;0.588105;0.586727;0.592753;0.596051;0.596025;0.605554;0.604125;0.610674;0.608566;0.617426;0.612989;0.618632;0.618146;0.626638;0.625924;0.624120;0.631756;0.630949;0.633509;0.635349;0.639837;0.635532;0.639468;0.641842;0.641343;0.641551;0.644865;0.641088;0.645904;0.643684;0.641848;0.644062;0.638955;0.637972;0.642512;0.645478;0.636996;0.638530;0.639154;0.637057;0.636155;0.635074;0.633220;0.630453;0.630757;0.629731;0.634202;0.628084;0.631304;0.628962;0.622523;0.623489;0.626424;0.624378;0.623965;0.621303;0.625179;0.624231;0.620461;0.624570;0.622163;0.622128;0.624334;0.620492;0.621787;0.627824;0.622813;0.629049;0.630270;0.631263;0.631420;0.635180;0.634213;0.644337;0.639337;0.641139;0.645011;0.647982;0.647454;0.649326;0.655318;0.662631;0.659704;0.656926;0.657043;0.664044;0.668383;0.669427;0.675910;0.671941;0.682061;0.681871;0.685848;0.691428;0.690181;0.695587;0.701248;0.704640;0.700431;0.710546;0.707869;0.709668;0.709047;0.715388;0.717498;0.716695;0.718392;0.722144;0.726274;0.730574;0.728026;0.733730;0.731518;0.736752;0.740192;0.734962;0.737478;0.736951;0.740867;0.740471;0.736373;0.739369;0.747324;0.738407;0.742505;0.745375;0.742609;0.745606;0.740780;0.744153;0.741251;0.743860;0.739700;0.736811;0.739121;0.740264;0.732361;0.742332;0.729018;0.728354;0.724981;0.723093;0.720860;0.718579;0.717396;0.709510;0.713345;0.706915;0.702390;0.697012;0.696478;0.691042;0.685509;0.682496;0.682659;0.669912;0.668796;0.661386;0.663401;0.649377;0.650141;0.647505;0.639583;0.635267;0.623444;0.623262;0.623817;0.617532;0.607578;0.607914;0.602312;0.591400;0.596766;0.586946;0.581687;0.583747;0.575597;0.568447;0.564814;0.561841;0.563318;0.556333;0.551035
0.507979;0.506713;0.503744;0.505779;0.507617;0.508614;0.509835;0.509872;0.512166;0.508126;0.511580;0.510484;0.514127;0.516368;0.512633;0.517523;0.518284;0.515616;0.518653;0.515859;0.514878;0.522308;0.517530;0.521598;0.521736;0.529367;0.526188;0.527983;0.528513;0.537300;0.532744;0.538040;0.538693;0.540076;0.538857;0.543659;0.548114;0.552076;0.549233;0.552591;0.557326;0.557489;0.561239;0.568955;0.562177;0.571891;0.566407;0.573607;0.578388;0.577788;0.583861;0.585031;0.596412;0.590482;0.596657;0.595516;0.600207;0.604268;0.602276;0.609236;0.608401;0.617955;0.622907;0.617453;0.628776;0.627578;0.626658;0.631595;0.630733;0.635676;0.639953;0.637869;0.642837;0.644759;0.644390;0.640539;0.642648;0.652060;0.655408;0.644029;0.648334;0.645015;0.645904;0.653185;0.643431;0.646194;0.644591;0.647613;0.644390;0.646926;0.646586;0.644096;0.641084;0.636270;0.635767;0.636594;0.634949;0.636205;0.632577;0.631207;0.631927;0.630480;0.624944;0.629979;0.629585;0.627516;0.626523;0.627654;0.629679;0.627385;0.627172;0.631108;0.632952;0.634531;0.637094;0.638769;0.639513;0.641531;0.647818;0.646861;0.653349;0.654305;0.656545;0.661125;0.668260;0.673584;0.676732;0.683289;0.688322;0.695078;0.703475;0.709848;0.711245;0.719371;0.727184;0.731532;0.740585;0.745817;0.751520;0.761711;0.769055;0.767683;0.777579;0.783521;0.791309;0.794737;0.796222;0.806327;0.815304;0.814014;0.817181;0.822829;0.830253;0.829699;0.831353;0.834447;0.831321;0.835481;0.837707;0.833717;0.839279;0.832985;0.834927;0.829891;0.830307;0.825676;0.826963;0.820479;0.815207;0.812200;0.805084;0.797416;0.791767;0.783525;0.780582;0.767807;0.766322;0.756014;0.748985;0.743103;0.735967;0.733667;0.716518;0.712792;0.700731;0.696223;0.684893;0.679859;0.671484;0.661967;0.656670;0.648390;0.643265;0.630816;0.623081;0.613874;0.611521;0.606390;0.601287;0.596323
0.504498;0.510115;0.508074;0.512320;0.514715;0.509612;0.512780;0.519214;0.517680;0.514019;0.517201;0.513879;0.518443;0.519131;0.521177;0.521105;0.518427;0.521143;0.523838;0.524578;0.524855;0.527756;0.531169;0.524153;0.529279;0.531262;0.530138;0.537958;0.533748;0.531110;0.540640;0.537958;0.538860;0.543998;0.542944;0.540689;0.548383;0.542608;0.548140;0.552255;0.555103;0.554354;0.554613;0.558757;0.560823;0.556837;0.564863;0.564527;0.564359;0.566414;0.567550;0.566731;0.573361;0.576431;0.578675;0.579226;0.583284;0.585115;0.586431;0.588517;0.591243;0.595615;0.601000;0.599214;0.603344;0.604165;0.608492;0.617902;0.617544;0.623064;0.624408;0.627660;0.635447;0.639184;0.642254;0.649920;0.650905;0.658833;0.658346;0.666376;0.674244;0.681024;0.684073;0.686898;0.693361;0.703208;0.713160;0.706965;0.722644;0.729880;0.735321;0.738052;0.746587;0.747627;0.760793;0.765917;0.772876;0.772742;0.786419;0.794361;0.796004;0.804624;0.808175;0.816132;0.821370;0.825904;0.832967;0.834827;0.844446;0.844548;0.849979;0.855108;0.854931;0.861440;0.864120;0.861846;0.866683;0.867696;0.866565;0.869521;0.868046;0.867247;0.864450;0.861543;0.868787;0.859286;0.861858;0.859693;0.854236;0.851397;0.850691;0.840633;0.842233;0.836502;0.824451;0.820850;0.816895;0.812512;0.804184;0.801140;0.795302;0.790429;0.781931;0.775248;0.770629;0.759499;0.755316;0.752695;0.743204;0.734838;0.731180;0.721990;0.713209;0.704689;0.696544;0.697788;0.685422;0.683245;0.673331;0.667458;0.666081;0.658544;0.653683;0.649331;0.645313;0.639208;0.631971;0.627446;0.623112;0.618976;0.615734;0.607690;0.606986;0.599190;0.596947;0.595237;0.587191;0.586231;0.583709;0.578338;0.575697;0.571817;0.570831;0.561199;0.556433;0.561033;0.557646;0.550781;0.554232;0.550713;0.538936;0.543986;0.539635;0.535145;0.538212;0.536341;0.530950;0.533218;0.530134;0.529859
0.526860;0.524667;0.527135;0.532418;0.532028;0.530482;0.532524;0.537786;0.538377;0.542663;0.542633;0.543772;0.552748;0.554231;0.552409;0.556387;0.560227;0.556557;0.562067;0.565703;0.569697;0.569827;0.571593;0.572513;0.572694;0.581324;0.581238;0.577163;0.577861;0.586424;0.584605;0.587017;0.585668;0.588521;0.585469;0.588841;0.586867;0.590624;0.591394;0.597358;0.590486;0.593320;0.591891;0.594761;0.592658;0.593003;0.590756;0.594082;0.593598;0.588052;0.593990;0.590156;0.590216;0.594114;0.591254;0.589769;0.588542;0.590801;0.582816;0.587162;0.581777;0.584327;0.580291;0.577628;0.582937;0.583806;0.585289;0.586979;0.583087;0.583560;0.585847;0.586254;0.586628;0.584180;0.587696;0.591494;0.592291;0.596969;0.597075;0.599681;0.603806;0.609167;0.607877;0.613863;0.620780;0.624700;0.629239;0.632008;0.634375;0.642293;0.646480;0.656488;0.657317;0.667243;0.671405;0.680602;0.681589;0.683354;0.695585;0.700571;0.711503;0.714762;0.725344;0.728898;0.734975;0.738553;0.747659;0.755244;0.758301;0.754790;0.765456;0.772677;0.777001;0.778553;0.782775;0.789010;0.791439;0.799449;0.794554;0.794981;0.802689;0.802993;0.804100;0.807756;0.812642;0.812983;0.808075;0.810560;0.808225;0.812605;0.806905;0.807560;0.809513;0.809709;0.800541;0.800370;0.804239;0.800000;0.795986;0.793772;0.787103;0.790574;0.785568;0.782950;0.779560;0.771734;0.776669;0.762958;0.768295;0.758593;0.753788;0.750901;0.749457;0.743231;0.739953;0.732218;0.730242;0.726005;0.722408;0.714521;0.716445;0.704966;0.707205;0.697681;0.694309;0.687245;0.682744;0.680348;0.671868;0.672168;0.667938;0.661242;0.650532;0.648170;0.643952;0.643942;0.634016;0.629767;0.623861;0.621400;0.614353;0.615195;0.603894;0.602617;0.596114;0.594238;0.588693;0.583750;0.576513;0.574960;0.568855;0.566456;0.561729;0.557326;0.553866;0.555155;0.552435;0.546339;0.545146;0.540897
0.508863;0.513145;0.509932;0.514151;0.514615;0.515187;0.520220;0.516894;0.519171;0.528117;0.520333;0.521595;0.523234;0.521704;0.517653;0.527310;0.524078;0.528759;0.529351;0.527192;0.534017;0.531397;0.532903;0.532658;0.536534;0.532847;0.537247;0.538218;0.535303;0.536036;0.537769;0.540515;0.542829;0.541935;0.544450;0.544081;0.544724;0.538318;0.542781;0.547217;0.542706;0.541423;0.545271;0.549047;0.541214;0.546995;0.542547;0.548380;0.543142;0.547047;0.547404;0.543715;0.544230;0.546283;0.547390;0.545438;0.543069;0.540369;0.538020;0.542498;0.543690;0.544286;0.539661;0.543664;0.547668;0.549123;0.549326;0.550928;0.546102;0.551267;0.551902;0.553808;0.561039;0.557162;0.557256;0.561729;0.561371;0.563973;0.571270;0.571030;0.575016;0.576387;0.582279;0.581143;0.587389;0.592202;0.593272;0.597985;0.606908;0.609223;0.610885;0.621017;0.627461;0.631048;0.633302;0.639143;0.646228;0.654059;0.654674;0.662068;0.669003;0.674635;0.681613;0.683120;0.690217;0.699204;0.703863;0.716248;0.715601;0.721892;0.724521;0.726356;0.737136;0.742079;0.745185;0.750124;0.755289;0.765695;0.765926;0.767961;0.770324;0.775181;0.782862;0.788885;0.792929;0.788584;0.793971;0.798927;0.806135;0.805582;0.809202;0.811079;0.815230;0.816726;0.819254;0.815418;0.819534;0.822058;0.823341;0.825721;0.830153;0.825005;0.828644;0.828514;0.829654;0.828909;0.828723;0.827853;0.825516;0.826867;0.824607;0.819012;0.817320;0.818295;0.818755;0.816763;0.811537;0.808275;0.807686;0.802059;0.798311;0.796058;0.793755;0.785851;0.784285;0.776908;0.775349;0.768476;0.758157;0.759988;0.749318;0.738777;0.739143;0.728690;0.722146;0.719541;0.708275;0.701612;0.695108;0.685500;0.683030;0.675013;0.666581;0.661253;0.657765;0.651602;0.639397;0.629319;0.626139;0.622763;0.615210;0.609980;0.601338;0.597222;0.595599;0.582107;0.578417;0.575306;0.573014;0.563209
0.520704;0.526881;0.528622;0.536342;0.534609;0.537694;0.540939;0.539892;0.538309;0.542987;0.548571;0.552670;0.554744;0.555895;0.559148;0.562776;0.560973;0.565710;0.566929;0.568413;0.569409;0.576000;0.578066;0.579062;0.581567;0.585863;0.592740;0.590306;0.597025;0.598410;0.604859;0.603945;0.609342;0.606228;0.606118;0.611651;0.618385;0.623963;0.621545;0.628003;0.628032;0.633415;0.632991;0.634184;0.634422;0.634591;0.640049;0.642604;0.646316;0.650562;0.644973;0.650471;0.653447;0.656390;0.655049;0.661695;0.656208;0.661998;0.668288;0.668843;0.668717;0.673568;0.670854;0.674550;0.676415;0.679816;0.680020;0.681595;0.685122;0.688830;0.691371;0.694509;0.693183;0.693699;0.698676;0.695270;0.700529;0.694325;0.705188;0.704845;0.709244;0.712351;0.710749;0.717199;0.715995;0.716959;0.723029;0.715259;0.724056;0.725424;0.729896;0.732004;0.730597;0.736058;0.737066;0.739295;0.741857;0.737700;0.746974;0.744886;0.747161;0.745260;0.748944;0.753959;0.752001;0.757639;0.756373;0.757531;0.761060;0.757631;0.761679;0.757678;0.761467;0.758278;0.757556;0.761527;0.757832;0.761455;0.758923;0.755408;0.764265;0.762352;0.755392;0.752462;0.753835;0.753010;0.747317;0.750736;0.738519;0.741690;0.744023;0.735376;0.733979;0.733470;0.728236;0.731558;0.720740;0.722618;0.715196;0.716973;0.713687;0.704588;0.698768;0.698316;0.696653;0.690758;0.691628;0.681679;0.681662;0.675663;0.677462;0.668636;0.666178;0.663974;0.661249;0.653947;0.648793;0.650337;0.641934;0.636220;0.640410;0.630921;0.628888;0.625844;0.626485;0.621966;0.611389;0.613331;0.606458;0.605687;0.598166;0.596165;0.590297;0.591896;0.592025;0.584073;0.581745;0.575160;0.573141;0.573163;0.569920;0.571552;0.566604;0.561030;0.558257;0.553793;0.555315;0.550548;0.543893;0.542890;0.540843;0.542638;0.538018;0.532809;0.531614;0.529838;0.528018;0.531859;0.523234;0.525510
0.520908;0.521077;0.523163;0.527241;0.524978;0.530082;0.530508;0.534678;0.533871;0.535079;0.539128;0.544875;0.539525;0.547396;0.549212;0.549542;0.554979;0.554452;0.561942;0.562030;0.566565;0.566569;0.571723;0.569585;0.574335;0.577428;0.579751;0.583669;0.586763;0.590914;0.593641;0.598076;0.600280;0.603843;0.607951;0.614437;0.607054;0.614207;0.612502;0.618042;0.627541;0.627305;0.628458;0.633079;0.634760;0.640776;0.645352;0.649311;0.652392;0.655353;0.657199;0.661888;0.663309;0.667207;0.669947;0.671140;0.673080;0.677386;0.685414;0.686980;0.689224;0.696190;0.695650;0.701199;0.704830;0.703556;0.704022;0.707855;0.710470;0.713068;0.714607;0.716176;0.717911;0.720837;0.722727;0.725619;0.732909;0.732236;0.726626;0.727532;0.735990;0.729100;0.734270;0.735651;0.732365;0.736797;0.733170;0.733623;0.734376;0.735055;0.728144;0.730621;0.731351;0.730538;0.727846;0.728217;0.727897;0.729164;0.732473;0.722729;0.725684;0.724376;0.722510;0.717697;0.719468;0.722112;0.714815;0.718913;0.714483;0.710357;0.713535;0.709541;0.709837;0.710197;0.710112;0.702340;0.707230;0.704870;0.704362;0.701981;0.703286;0.702974;0.700052;0.700801;0.702592;0.695779;0.695461;0.698343;0.696204;0.693182;0.693895;0.696533;0.690914;0.693846;0.688591;0.689106;0.690630;0.691594;0.689266;0.691446;0.684315;0.688794;0.688199;0.685035;0.682548;0.685682;0.680988;0.681179;0.681047;0.676837;0.676973;0.679504;0.674023;0.671867;0.672274;0.671284;0.668668;0.657987;0.667215;0.660942;0.658323;0.657945;0.658516;0.648597;0.647448;0.645649;0.648164;0.637094;0.638878;0.634453;0.631128;0.629156;0.621571;0.620179;0.615924;0.621003;0.615566;0.603608;0.607833;0.596106;0.595741;0.589683;0.586783;0.584360;0.580428;0.579382;0.574151;0.565974;0.561837;0.563133;0.561428;0.559584;0.550599;0.550715;0.547429;0.542788;0.537436;0.541708;0.538150;0.534492
0.538730;0.549520;0.544742;0.547762;0.551080;0.551561;0.553548;0.559209;0.560951;0.565743;0.567225;0.570342;0.578814;0.581408;0.583757;0.587119;0.589486;0.590006;0.593498;0.606727;0.602375;0.611910;0.613861;0.617198;0.624759;0.625172;0.631315;0.630770;0.639256;0.642113;0.642142;0.651482;0.649801;0.658010;0.659138;0.662106;0.665072;0.661576;0.673725;0.670561;0.675864;0.678121;0.681502;0.684458;0.686155;0.692053;0.691073;0.690920;0.697825;0.694895;0.701234;0.697794;0.700341;0.703193;0.701146;0.707292;0.705460;0.707986;0.709643;0.706388;0.712178;0.715821;0.709141;0.709478;0.712039;0.709396;0.712297;0.711266;0.712538;0.710954;0.710046;0.715384;0.713435;0.717267;0.710449;0.716401;0.713807;0.714723;0.711934;0.709313;0.709869;0.705691;0.704879;0.704460;0.706617;0.702720;0.704546;0.701115;0.699889;0.696545;0.695989;0.694609;0.693856;0.693402;0.694311;0.691572;0.685400;0.685821;0.684804;0.683279;0.682117;0.675314;0.674979;0.671544;0.671107;0.672201;0.671276;0.664222;0.667044;0.670982;0.664772;0.664889;0.661019;0.660363;0.661385;0.662870;0.659563;0.657458;0.652805;0.658574;0.661152;0.659343;0.659507;0.657001;0.659806;0.656982;0.661152;0.660087;0.663710;0.659807;0.660259;0.658708;0.663568;0.662067;0.660590;0.660810;0.660966;0.663772;0.669763;0.663617;0.667293;0.663891;0.672398;0.668965;0.672098;0.670966;0.667508;0.669768;0.670043;0.668948;0.666796;0.669291;0.666648;0.669024;0.669705;0.665267;0.665950;0.666986;0.665470;0.663326;0.660279;0.661600;0.658962;0.659436;0.655541;0.652061;0.650274;0.645821;0.643393;0.639461;0.636346;0.632940;0.630849;0.627228;0.620377;0.619754;0.617660;0.610422;0.604350;0.605189;0.602790;0.599611;0.593331;0.589526;0.591988;0.580238;0.582308;0.579864;0.572392;0.568816;0.564127;0.564600;0.560123;0.558493;0.556268;0.549700;0.548996;0.543422;0.542093;0.538879
0.502327;0.510008;0.508603;0.506569;0.507923;0.507841;0.511069;0.514110;0.511647;0.517321;0.516591;0.518404;0.518812;0.517543;0.519805;0.518019;0.521017;0.528218;0.527426;0.529331;0.532960;0.529281;0.533659;0.539936;0.542871;0.541808;0.542440;0.545720;0.548088;0.550719;0.553501;0.558085;0.559934;0.557513;0.564556;0.569966;0.574395;0.576920;0.579733;0.585955;0.588611;0.593747;0.597862;0.601936;0.605085;0.611212;0.620612;0.621415;0.629491;0.630603;0.636122;0.645067;0.646208;0.650345;0.660667;0.667100;0.666493;0.681887;0.688536;0.686860;0.697052;0.699715;0.704885;0.713099;0.717057;0.721700;0.730191;0.734206;0.737949;0.745852;0.745733;0.752290;0.752959;0.760464;0.761830;0.761701;0.770131;0.767824;0.777361;0.773713;0.777223;0.772996;0.776184;0.780141;0.778444;0.775317;0.777982;0.777638;0.776371;0.775771;0.779862;0.775430;0.774026;0.773649;0.774600;0.772494;0.766021;0.765377;0.761200;0.762487;0.758966;0.760360;0.751565;0.750367;0.747164;0.749421;0.747216;0.740374;0.742383;0.735614;0.731404;0.731394;0.729883;0.724247;0.722410;0.719181;0.719691;0.717709;0.716356;0.713585;0.711512;0.710874;0.710887;0.708618;0.700788;0.704479;0.702102;0.700091;0.702895;0.699212;0.696360;0.693425;0.701572;0.696594;0.689145;0.691420;0.690159;0.691148;0.690852;0.691859;0.691559;0.686268;0.694950;0.684883;0.683556;0.689885;0.684959;0.684365;0.681133;0.679119;0.682608;0.682114;0.676048;0.678058;0.673865;0.670772;0.672939;0.672986;0.666148;0.669477;0.666344;0.662504;0.661996;0.656441;0.657297;0.653416;0.646942;0.647572;0.648216;0.640154;0.634003;0.627858;0.630284;0.630079;0.624369;0.615964;0.618708;0.610168;0.607308;0.604405;0.600703;0.598162;0.591708;0.586753;0.582206;0.582878;0.576592;0.576474;0.573234;0.567515;0.563682;0.559374;0.557791;0.557857;0.552546;0.551273;0.548912;0.547249;0.540957;0.540934
0.502218;0.503100;0.507005;0.503229;0.501533;0.504162;0.505780;0.504370;0.506820;0.509899;0.504417;0.506320;0.508345;0.508369;0.511152;0.513742;0.508995;0.512072;0.513095;0.510909;0.516744;0.517463;0.518772;0.517483;0.525112;0.521771;0.529528;0.527365;0.527459;0.531112;0.530964;0.535427;0.532387;0.540808;0.540542;0.545016;0.545503;0.543974;0.549471;0.552448;0.558032;0.559881;0.560535;0.559479;0.566850;0.570402;0.576539;0.580410;0.578003;0.585900;0.587487;0.590734;0.600199;0.598318;0.604657;0.609149;0.616707;0.614699;0.620045;0.621654;0.630838;0.630169;0.638289;0.640172;0.644452;0.647795;0.652328;0.656948;0.657810;0.664987;0.664453;0.665445;0.673792;0.670284;0.669743;0.677088;0.676059;0.677320;0.683180;0.683852;0.682231;0.683706;0.679906;0.681982;0.686496;0.685681;0.681905;0.684136;0.682513;0.683975;0.679667;0.683779;0.680333;0.673920;0.681294;0.677517;0.672247;0.672542;0.671595;0.671256;0.671318;0.664907;0.665079;0.660840;0.665317;0.661033;0.665621;0.660148;0.662411;0.661510;0.665622;0.664937;0.667386;0.661015;0.665101;0.667545;0.666633;0.669308;0.664926;0.670713;0.667416;0.671118;0.669589;0.677239;0.682251;0.683251;0.687058;0.693237;0.694843;0.699013;0.700909;0.710523;0.715455;0.717205;0.720897;0.724593;0.729158;0.733758;0.737608;0.746735;0.749343;0.754761;0.752626;0.762249;0.765849;0.764578;0.773189;0.776588;0.777481;0.784218;0.781932;0.787628;0.788895;0.788161;0.791676;0.793377;0.786821;0.791522;0.790847;0.793055;0.791800;0.789622;0.782738;0.781423;0.784063;0.777209;0.772783;0.771810;0.767398;0.761844;0.758751;0.751920;0.749194;0.743025;0.737189;0.729153;0.720934;0.715122;0.712290;0.704241;0.694608;0.689034;0.681928;0.678270;0.666179;0.657822;0.657043;0.646824;0.640080;0.633760;0.628060;0.625473;0.611949;0.607386;0.604444;0.599150;0.593425;0.584302;0.581330;0.576433
0.547104;0.554107;0.555696;0.555307;0.559343;0.564493;0.573672;0.577320;0.575981;0.579808;0.584463;0.584960;0.587923;0.594094;0.603809;0.605614;0.609594;0.616132;0.622570;0.625133;0.626121;0.630218;0.633181;0.640658;0.647817;0.647823;0.653935;0.660417;0.661951;0.661221;0.666212;0.669005;0.671027;0.677437;0.680817;0.680463;0.683775;0.686204;0.684074;0.690163;0.685553;0.695722;0.697633;0.694696;0.697528;0.695567;0.692200;0.696881;0.696791;0.692690;0.695116;0.694701;0.691312;0.690574;0.690738;0.687894;0.690061;0.684718;0.688814;0.681455;0.684806;0.683913;0.681339;0.683433;0.686294;0.681865;0.675319;0.677088;0.671219;0.677531;0.676070;0.676513;0.676273;0.676608;0.681791;0.674883;0.679701;0.680630;0.684813;0.681172;0.684370;0.689281;0.690700;0.689474;0.696307;0.693470;0.700660;0.701250;0.706916;0.705136;0.714876;0.718089;0.719131;0.720819;0.730550;0.729086;0.736707;0.739620;0.740624;0.743475;0.745883;0.749610;0.754406;0.762685;0.759676;0.763617;0.768014;0.770541;0.773956;0.773282;0.779142;0.782858;0.780885;0.784131;0.787658;0.787891;0.783512;0.783716;0.786038;0.779411;0.778475;0.782666;0.781432;0.776022;0.774942;0.769126;0.766114;0.766183;0.757092;0.756453;0.751188;0.744299;0.747323;0.740347;0.732220;0.727874;0.721543;0.713961;0.708720;0.705975;0.699715;0.688341;0.682801;0.678647;0.668451;0.662704;0.656116;0.650777;0.644118;0.639440;0.636593;0.621390;0.622845;0.612570;0.611260;0.604401;0.600295;0.592417;0.589754;0.584633;0.580258;0.576177;0.572893;0.562516;0.562650;0.559880;0.556143;0.551049;0.550998;0.545949;0.539152;0.543213;0.537465;0.534132;0.534173;0.531452;0.533120;0.529446;0.525743;0.523051;0.519305;0.519066;0.522662;0.514035;0.515605;0.515101;0.512309;0.512711;0.514395;0.514226;0.510522;0.513825;0.511997;0.509560;0.509262;0.508017;0.507755;0.505999;0.509179;0.506111
0.509104;0.508864;0.504001;0.510283;0.510731;0.506094;0.508159;0.508068;0.510683;0.515265;0.514291;0.509395;0.515764;0.519204;0.520231;0.518267;0.524453;0.523117;0.523144;0.531287;0.531046;0.531708;0.536271;0.539680;0.538623;0.544940;0.540658;0.551307;0.550903;0.553635;0.559433;0.561178;0.567558;0.573666;0.577070;0.580590;0.583343;0.590368;0.597766;0.600425;0.606589;0.616018;0.617762;0.627392;0.633207;0.642124;0.641178;0.653683;0.657033;0.665555;0.671218;0.680052;0.689310;0.700256;0.705679;0.712682;0.722386;0.726125;0.731707;0.742152;0.751381;0.758298;0.762643;0.775259;0.776179;0.788559;0.794866;0.799424;0.810206;0.809220;0.818509;0.825077;0.827525;0.833548;0.831958;0.837836;0.844041;0.847305;0.843781;0.847185;0.847422;0.855710;0.850414;0.858421;0.854327;0.857278;0.853109;0.847284;0.849183;0.847563;0.843338;0.836714;0.839092;0.833903;0.831386;0.825772;0.819475;0.819373;0.821304;0.809681;0.805817;0.798900;0.798119;0.786169;0.787696;0.780478;0.776698;0.768367;0.760654;0.763357;0.750756;0.751428;0.741912;0.738767;0.729012;0.725936;0.728663;0.717921;0.710151;0.708482;0.704765;0.696789;0.698563;0.695606;0.686882;0.686866;0.679990;0.676220;0.676471;0.674039;0.672619;0.666692;0.663120;0.657112;0.648883;0.652979;0.651885;0.650101;0.651165;0.638674;0.640206;0.637827;0.637284;0.632492;0.633529;0.632083;0.631244;0.629314;0.624901;0.615891;0.623624;0.617627;0.615863;0.613175;0.612501;0.608236;0.610509;0.610977;0.611832;0.604014;0.600547;0.593938;0.593174;0.591205;0.594374;0.592284;0.588412;0.588278;0.584198;0.579648;0.580497;0.576769;0.575724;0.572117;0.571435;0.565155;0.564111;0.562283;0.562903;0.557795;0.552062;0.558178;0.554485;0.554012;0.550188;0.546762;0.546172;0.543070;0.542772;0.539195;0.533869;0.535520;0.534259;0.534119;0.528204;0.530655;0.529565;0.526681;0.523634;0.525950
0.509714;0.506778;0.513448;0.512214;0.517433;0.515708;0.513844;0.517050;0.512663;0.515751;0.518069;0.520380;0.522790;0.520520;0.524199;0.521438;0.525469;0.521762;0.524798;0.529155;0.525544;0.530259;0.527859;0.538423;0.532752;0.532169;0.533047;0.538670;0.537799;0.538120;0.542647;0.538344;0.538018;0.538842;0.544574;0.542017;0.542509;0.545083;0.543827;0.543663;0.546020;0.541067;0.549778;0.548069;0.546795;0.547610;0.546910;0.554214;0.552092;0.551521;0.550076;0.553584;0.549434;0.552447;0.554174;0.555610;0.559458;0.560109;0.560897;0.564272;0.556940;0.566932;0.565291;0.562586;0.574487;0.576560;0.574877;0.577756;0.585172;0.583619;0.581731;0.592159;0.591035;0.596654;0.605438;0.607985;0.614765;0.621916;0.622976;0.630723;0.637056;0.641884;0.646389;0.653264;0.664835;0.670293;0.678108;0.684392;0.687162;0.697573;0.710041;0.712970;0.728095;0.732960;0.740866;0.750451;0.757404;0.765109;0.774885;0.782900;0.793763;0.799941;0.807214;0.816094;0.828231;0.829262;0.840362;0.846536;0.850351;0.858725;0.861824;0.870078;0.871992;0.878139;0.881930;0.886408;0.888838;0.886097;0.891186;0.894338;0.894656;0.896796;0.888370;0.892542;0.888355;0.890971;0.885552;0.881468;0.882244;0.873533;0.869351;0.864914;0.863129;0.858535;0.856564;0.846947;0.841821;0.829559;0.827815;0.821514;0.807982;0.807578;0.799625;0.788573;0.778519;0.771195;0.766122;0.759256;0.749231;0.743117;0.736036;0.726020;0.718331;0.709248;0.699781;0.693400;0.684751;0.681018;0.673008;0.670771;0.660011;0.655360;0.649300;0.639992;0.637815;0.636135;0.625345;0.620401;0.612783;0.609379;0.599307;0.601774;0.591254;0.592300;0.585209;0.578046;0.577714;0.573839;0.571945;0.567374;0.562801;0.559949;0.552943;0.550686;0.548616;0.542329;0.540823;0.539709;0.535143;0.536140;0.526922;0.529776;0.527734;0.521166;0.522051;0.523048;0.517868;0.514499;0.517935;0.517483
0.518859;0.518495;0.514291;0.519395;0.518157;0.521617;0.525256;0.526980;0.529572;0.525905;0.527479;0.535477;0.535550;0.537921;0.539759;0.542706;0.542687;0.542833;0.549665;0.549913;0.551712;0.558829;0.561147;0.564735;0.569967;0.575182;0.570866;0.579069;0.584294;0.585989;0.595156;0.592884;0.599535;0.610000;0.613029;0.615941;0.622199;0.627600;0.635653;0.638974;0.648304;0.650738;0.656517;0.666637;0.672101;0.680169;0.683273;0.694971;0.700439;0.703889;0.715153;0.723223;0.728797;0.739863;0.744411;0.757499;0.761119;0.769833;0.780361;0.786488;0.790681;0.795926;0.802872;0.809872;0.819912;0.823951;0.827972;0.835100;0.835128;0.839801;0.847945;0.852096;0.857383;0.856705;0.864474;0.867951;0.869544;0.865496;0.867602;0.871376;0.867134;0.872477;0.865822;0.866561;0.863451;0.860205;0.860841;0.855689;0.854649;0.849132;0.843673;0.834046;0.838570;0.827314;0.819390;0.812954;0.806476;0.808533;0.798455;0.794499;0.782219;0.776573;0.769533;0.757614;0.754228;0.748679;0.739633;0.726928;0.724444;0.715495;0.712369;0.700386;0.698180;0.695224;0.685140;0.680749;0.673625;0.667907;0.661205;0.657145;0.649766;0.648462;0.645413;0.642064;0.639459;0.632882;0.628060;0.626037;0.619875;0.624892;0.621167;0.613710;0.616308;0.615265;0.608615;0.606429;0.604884;0.604029;0.603994;0.601463;0.602898;0.602889;0.599152;0.601010;0.599751;0.600582;0.599920;0.599953;0.598242;0.596969;0.598226;0.597057;0.594947;0.595969;0.593349;0.593665;0.592033;0.592293;0.591473;0.588080;0.590704;0.589814;0.588154;0.587344;0.585050;0.587862;0.583831;0.578211;0.578217;0.579131;0.580511;0.572660;0.572525;0.572190;0.567438;0.565647;0.569419;0.565841;0.566152;0.562582;0.560673;0.562613;0.553710;0.558559;0.549764;0.546587;0.546956;0.550876;0.546334;0.543300;0.538520;0.541248;0.536565;0.533090;0.535470;0.532429;0.532836;0.526704;0.529256;0.530374
0.532020;0.533362;0.539671;0.540461;0.543644;0.545060;0.545892;0.552987;0.546060;0.548656;0.554390;0.556535;0.562889;0.563553;0.568551;0.566065;0.574469;0.580404;0.572717;0.578953;0.583848;0.586372;0.589025;0.595998;0.590778;0.597385;0.595361;0.597668;0.602940;0.602547;0.609612;0.610828;0.610757;0.610112;0.611251;0.610040;0.615177;0.614845;0.616327;0.617726;0.617962;0.619654;0.615456;0.616861;0.624510;0.622532;0.616680;0.620558;0.621411;0.618420;0.617803;0.615444;0.618745;0.618586;0.616761;0.618175;0.615686;0.620739;0.612368;0.609983;0.613062;0.610721;0.612750;0.613509;0.613441;0.610735;0.611363;0.613406;0.613863;0.615267;0.615753;0.619477;0.623490;0.616353;0.622887;0.628816;0.632665;0.633770;0.637403;0.647101;0.643367;0.647376;0.654161;0.657605;0.662508;0.674349;0.675079;0.682386;0.692959;0.693953;0.703720;0.704935;0.715711;0.719750;0.730610;0.740628;0.747362;0.753214;0.761093;0.764741;0.771940;0.780805;0.789445;0.799433;0.803551;0.811438;0.817440;0.823743;0.822904;0.831294;0.840147;0.841794;0.848220;0.850529;0.855720;0.856482;0.856745;0.857291;0.862225;0.860421;0.857606;0.857927;0.861007;0.857119;0.855353;0.853194;0.849244;0.842878;0.843404;0.835920;0.830847;0.822881;0.820776;0.814640;0.811105;0.802050;0.792251;0.785759;0.779569;0.773249;0.768379;0.756039;0.751872;0.745482;0.730731;0.728747;0.715627;0.712470;0.698756;0.694866;0.686607;0.672647;0.668040;0.659095;0.656094;0.648918;0.635043;0.630699;0.621365;0.620510;0.616878;0.610057;0.600200;0.592876;0.589137;0.585419;0.581757;0.577395;0.568907;0.568353;0.562643;0.558011;0.554981;0.554301;0.552713;0.541564;0.542986;0.542534;0.538484;0.530264;0.535497;0.528075;0.530404;0.525536;0.525926;0.522694;0.521983;0.515378;0.519014;0.518149;0.515938;0.514714;0.508446;0.509546;0.510026;0.509780;0.506370;0.507226;0.504200;0.507184
0.507532;0.508418;0.513753;0.510165;0.510919;0.510654;0.509943;0.512594;0.516717;0.518288;0.516422;0.517305;0.521654;0.519482;0.519636;0.523952;0.523205;0.523012;0.526896;0.530445;0.528514;0.530694;0.526042;0.533390;0.538279;0.538051;0.536890;0.538828;0.540162;0.544553;0.543188;0.552465;0.555159;0.555731;0.558356;0.562097;0.564579;0.571631;0.570467;0.571591;0.578065;0.584388;0.583003;0.583083;0.586932;0.594301;0.598205;0.603099;0.605305;0.609240;0.615859;0.614106;0.621482;0.625308;0.633933;0.633708;0.639674;0.640161;0.645453;0.647677;0.657826;0.656953;0.663096;0.669082;0.670462;0.676496;0.680181;0.682493;0.684434;0.692942;0.691197;0.694892;0.695096;0.699958;0.703489;0.707798;0.709920;0.716403;0.710432;0.720446;0.717485;0.714415;0.721471;0.717027;0.724423;0.721123;0.724314;0.723793;0.728345;0.724503;0.726612;0.724851;0.727777;0.729164;0.728712;0.725270;0.725531;0.727025;0.720112;0.722051;0.718096;0.722750;0.723740;0.720996;0.718378;0.714532;0.720203;0.718209;0.714059;0.716804;0.714286;0.715285;0.715325;0.712252;0.719254;0.716263;0.715968;0.715508;0.711357;0.711037;0.715496;0.714630;0.713286;0.706754;0.716229;0.713628;0.715930;0.711181;0.721571;0.713421;0.718267;0.717455;0.717499;0.719460;0.718594;0.716200;0.717874;0.719636;0.718758;0.718633;0.723265;0.723355;0.724435;0.723893;0.723306;0.725326;0.725950;0.720953;0.719780;0.723360;0.717618;0.720431;0.721717;0.717547;0.715638;0.715629;0.719426;0.716742;0.711950;0.706092;0.706090;0.708014;0.701718;0.696576;0.692664;0.693074;0.686987;0.685408;0.677289;0.678218;0.675023;0.667124;0.665711;0.663001;0.655638;0.657729;0.645941;0.644718;0.634949;0.634279;0.629010;0.623954;0.618507;0.613056;0.606203;0.603991;0.592251;0.594972;0.586446;0.588395;0.583719;0.577121;0.575456;0.566265;0.561223;0.556473;0.556340;0.551196;0.552422;0.545164
0.523693;0.524578;0.528473;0.526461;0.533437;0.530605;0.535346;0.536266;0.539812;0.539811;0.543947;0.543176;0.546324;0.549164;0.551058;0.552792;0.558733;0.557207;0.556450;0.562628;0.565216;0.566278;0.574034;0.576824;0.577013;0.573723;0.583872;0.580375;0.582506;0.583683;0.585173;0.589371;0.594189;0.591838;0.596899;0.590690;0.600261;0.600295;0.600174;0.606339;0.606088;0.606112;0.604349;0.607397;0.609667;0.609210;0.611300;0.610844;0.610619;0.615415;0.611775;0.616650;0.613684;0.616919;0.615691;0.618047;0.613240;0.611980;0.616565;0.617022;0.615316;0.616656;0.615718;0.612514;0.616514;0.615421;0.618896;0.615157;0.619343;0.619932;0.618193;0.619950;0.613316;0.620249;0.616070;0.611197;0.618008;0.618258;0.617434;0.615873;0.611554;0.614672;0.613983;0.620460;0.617944;0.614012;0.619317;0.616109;0.613226;0.616882;0.613368;0.617356;0.613944;0.619018;0.620687;0.620719;0.624826;0.622690;0.621572;0.625636;0.627806;0.627699;0.626533;0.629970;0.633496;0.629613;0.634313;0.636802;0.639982;0.636883;0.641364;0.647329;0.647481;0.651168;0.655408;0.654785;0.662180;0.666576;0.668688;0.666781;0.671779;0.675814;0.679323;0.687292;0.685792;0.694929;0.696296;0.705242;0.702140;0.708963;0.713954;0.717836;0.723890;0.727633;0.728498;0.733985;0.741895;0.742759;0.753558;0.758345;0.759499;0.765973;0.766655;0.767609;0.776079;0.776705;0.785275;0.785580;0.786348;0.789221;0.790852;0.792753;0.793144;0.795933;0.792923;0.802534;0.797646;0.794733;0.795281;0.788505;0.794872;0.791802;0.789880;0.786519;0.785922;0.781416;0.776596;0.775298;0.768259;0.762090;0.761866;0.753618;0.747540;0.739124;0.737635;0.731539;0.723855;0.716673;0.713979;0.708446;0.694378;0.687422;0.680246;0.674327;0.670866;0.661961;0.658634;0.653383;0.642778;0.636556;0.626263;0.620238;0.615010;0.611668;0.606703;0.600903;0.591995;0.590010;0.584961;0.580549
0.542671;0.553152;0.549277;0.557152;0.557985;0.565092;0.568116;0.570020;0.578349;0.574498;0.581646;0.583702;0.595339;0.599596;0.598222;0.606341;0.610767;0.615403;0.621266;0.626426;0.630453;0.632201;0.635297;0.641126;0.643530;0.646405;0.653601;0.658740;0.663672;0.667632;0.675994;0.673486;0.682080;0.686125;0.682720;0.690377;0.696089;0.697075;0.699501;0.697628;0.705861;0.704409;0.708582;0.707607;0.716209;0.709326;0.708674;0.722317;0.717265;0.719837;0.718513;0.719674;0.716452;0.719414;0.721065;0.719551;0.717561;0.722120;0.721132;0.712973;0.717362;0.712990;0.712968;0.716679;0.710832;0.710762;0.710993;0.712758;0.706633;0.703318;0.700123;0.701470;0.699711;0.692830;0.696171;0.689947;0.687837;0.688601;0.687953;0.684188;0.678637;0.673927;0.679238;0.671329;0.670949;0.665627;0.665046;0.665379;0.654878;0.655459;0.650638;0.647025;0.641605;0.641457;0.634634;0.635959;0.639095;0.633148;0.628163;0.627582;0.625787;0.622387;0.617631;0.619280;0.607507;0.613138;0.610057;0.611247;0.607267;0.604191;0.606252;0.604647;0.606827;0.598047;0.600501;0.598667;0.604576;0.600715;0.601792;0.608791;0.606915;0.606793;0.603811;0.606992;0.604854;0.612216;0.615562;0.617237;0.621220;0.620646;0.626884;0.630943;0.629402;0.631962;0.638125;0.640671;0.644200;0.650367;0.649277;0.655093;0.662515;0.661996;0.670780;0.669562;0.674454;0.674700;0.679894;0.679229;0.684016;0.688719;0.685750;0.689138;0.693286;0.692115;0.690370;0.694240;0.694233;0.696235;0.693098;0.697282;0.698932;0.697498;0.698206;0.696992;0.695073;0.691074;0.686395;0.683669;0.679783;0.680058;0.676333;0.676631;0.670914;0.668618;0.667415;0.662905;0.655911;0.647998;0.646716;0.646307;0.634022;0.632436;0.628589;0.622753;0.618788;0.614946;0.604315;0.604508;0.604415;0.601509;0.591603;0.589174;0.579383;0.575438;0.572369;0.574230;0.564085;0.565685;0.565387;0.557575
0.535276;0.532631;0.536092;0.537253;0.542056;0.544386;0.548526;0.549096;0.553325;0.555687;0.559775;0.563607;0.567981;0.564096;0.570017;0.573608;0.574884;0.578999;0.588325;0.588255;0.595286;0.592467;0.594268;0.599021;0.609843;0.607981;0.611729;0.615186;0.614765;0.619532;0.627276;0.626142;0.631643;0.636425;0.636623;0.636444;0.641485;0.645741;0.650980;0.647757;0.656089;0.653323;0.656383;0.659988;0.665169;0.660233;0.667916;0.668141;0.670488;0.672573;0.675761;0.673368;0.676930;0.678492;0.680700;0.681689;0.687250;0.687359;0.691418;0.690630;0.692548;0.689500;0.690070;0.691034;0.701814;0.696034;0.700262;0.700249;0.702151;0.704770;0.703701;0.705640;0.706604;0.711346;0.711620;0.707928;0.711936;0.714810;0.711312;0.710654;0.715871;0.720347;0.710729;0.717963;0.718624;0.722090;0.719325;0.720367;0.720035;0.717997;0.722731;0.723499;0.723304;0.720601;0.720613;0.723224;0.724411;0.722027;0.725736;0.730104;0.728196;0.731021;0.724424;0.730050;0.726634;0.728253;0.730798;0.729000;0.729958;0.728288;0.729164;0.727249;0.727119;0.732751;0.723328;0.726715;0.723404;0.724543;0.722947;0.724043;0.717932;0.720708;0.720250;0.718035;0.710704;0.712008;0.713415;0.708584;0.708421;0.706388;0.705514;0.702640;0.705616;0.697203;0.698520;0.699469;0.692874;0.689479;0.686918;0.677765;0.676901;0.679706;0.675312;0.674305;0.669998;0.669854;0.663491;0.663120;0.654767;0.657548;0.654568;0.651536;0.648978;0.640770;0.641489;0.641228;0.629414;0.635561;0.628337;0.622065;0.620999;0.619511;0.616184;0.615829;0.609055;0.606333;0.605155;0.602262;0.597467;0.593057;0.588378;0.584783;0.581746;0.581650;0.581741;0.578785;0.572642;0.572638;0.565284;0.564652;0.562996;0.557207;0.557787;0.554738;0.554341;0.549449;0.547691;0.544278;0.543255;0.541358;0.534412;0.530494;0.535976;0.529993;0.528513;0.523956;0.526701;0.522207;0.519734;0.515509
0.536026;0.531681;0.535777;0.537331;0.542166;0.540980;0.544238;0.550902;0.554729;0.557659;0.558823;0.561927;0.562555;0.562784;0.568766;0.570700;0.576560;0.582390;0.580858;0.584516;0.593038;0.595589;0.593782;0.599695;0.606332;0.604889;0.608217;0.610758;0.615495;0.617083;0.620536;0.626422;0.623691;0.632952;0.631596;0.636790;0.638261;0.635722;0.642001;0.640627;0.646418;0.647059;0.647571;0.649986;0.653871;0.650159;0.653046;0.653716;0.656216;0.657937;0.660916;0.662905;0.663712;0.660629;0.664406;0.665385;0.665385;0.661383;0.663761;0.663017;0.661413;0.667272;0.663752;0.662628;0.668210;0.668642;0.665951;0.666614;0.665661;0.663745;0.667658;0.659798;0.666049;0.666331;0.665665;0.667858;0.661604;0.662697;0.665584;0.663806;0.669724;0.663968;0.663395;0.659772;0.667001;0.664385;0.667093;0.660281;0.658307;0.664459;0.663363;0.663605;0.662039;0.656498;0.659728;0.660209;0.661494;0.665014;0.664478;0.665584;0.659896;0.660348;0.665501;0.662615;0.662029;0.665145;0.662331;0.663879;0.664376;0.664869;0.665901;0.668732;0.668337;0.670275;0.670130;0.670104;0.675891;0.677228;0.672959;0.678650;0.683628;0.678775;0.682611;0.686014;0.687264;0.688701;0.692494;0.694195;0.698153;0.695717;0.700128;0.699530;0.700302;0.708309;0.711815;0.710884;0.711614;0.715902;0.715551;0.717780;0.720730;0.720641;0.721574;0.725054;0.728913;0.725970;0.729936;0.729816;0.732986;0.732434;0.732337;0.735028;0.731478;0.734799;0.729103;0.733249;0.729609;0.727168;0.726264;0.728168;0.725396;0.724746;0.718705;0.719810;0.714884;0.710993;0.711178;0.705656;0.700429;0.701417;0.689588;0.694589;0.687914;0.679815;0.677420;0.671424;0.661340;0.665331;0.657704;0.652362;0.646813;0.645663;0.639009;0.635755;0.630637;0.619362;0.618683;0.614461;0.602311;0.603802;0.602958;0.592571;0.590346;0.590082;0.579983;0.578263;0.577721;0.572536;0.566612;0.564841
0.513358;0.510162;0.511353;0.513731;0.510684;0.516603;0.515606;0.519854;0.522886;0.516833;0.520026;0.526197;0.527200;0.525504;0.532264;0.528207;0.529024;0.527729;0.529532;0.528535;0.530598;0.537412;0.538904;0.534666;0.542844;0.541819;0.541886;0.544444;0.543394;0.542782;0.551446;0.546019;0.548900;0.557222;0.555626;0.554623;0.552462;0.552692;0.554457;0.556212;0.565437;0.560252;0.564218;0.562507;0.561020;0.562786;0.568124;0.564822;0.567325;0.567432;0.567009;0.568275;0.571496;0.578251;0.577683;0.577404;0.578737;0.576482;0.577136;0.582492;0.584339;0.580358;0.586927;0.585312;0.582939;0.581562;0.588823;0.583290;0.587833;0.589693;0.584376;0.593476;0.597118;0.592909;0.593926;0.593157;0.592351;0.595752;0.605498;0.595881;0.600704;0.603924;0.602303;0.606715;0.601178;0.602918;0.603377;0.609590;0.613104;0.607766;0.611225;0.611015;0.617436;0.617169;0.619850;0.619251;0.619993;0.620412;0.622288;0.625482;0.628165;0.630976;0.634594;0.639188;0.632318;0.639922;0.646357;0.646065;0.648026;0.651861;0.653485;0.653817;0.659798;0.662628;0.672947;0.674266;0.675459;0.681491;0.686994;0.687587;0.699166;0.700585;0.707679;0.709721;0.713082;0.716700;0.721436;0.730052;0.738399;0.742401;0.753647;0.750723;0.754717;0.758889;0.771163;0.774075;0.778308;0.785468;0.787445;0.792830;0.802709;0.809399;0.811720;0.815781;0.821606;0.821706;0.826079;0.830485;0.834020;0.841301;0.836353;0.839561;0.844777;0.845057;0.847232;0.842998;0.848257;0.847965;0.845910;0.848824;0.840522;0.844011;0.838079;0.837655;0.834172;0.831810;0.825120;0.822179;0.814387;0.808259;0.805696;0.799815;0.792554;0.788262;0.786745;0.775196;0.766067;0.757885;0.745669;0.740623;0.734099;0.730304;0.715015;0.711994;0.704005;0.696153;0.688366;0.680401;0.672530;0.664176;0.660120;0.645809;0.642050;0.636500;0.623797;0.618985;0.610436;0.607555;0.600315;0.600354
0.498570;0.503333;0.503612;0.509114;0.505227;0.506183;0.507322;0.508433;0.509759;0.508196;0.511025;0.506006;0.514826;0.510991;0.516111;0.512779;0.516180;0.520449;0.528080;0.524729;0.524320;0.528874;0.532388;0.531212;0.537114;0.539132;0.541893;0.544552;0.543891;0.549820;0.558802;0.555309;0.561396;0.569081;0.575455;0.575558;0.583699;0.590957;0.592139;0.602987;0.601014;0.614535;0.621737;0.627977;0.632570;0.644051;0.654926;0.652618;0.665073;0.671904;0.679621;0.695580;0.696504;0.704282;0.719112;0.728749;0.732087;0.747634;0.756795;0.760819;0.767282;0.779129;0.784160;0.793674;0.801586;0.812675;0.818534;0.824922;0.829769;0.841331;0.843324;0.853858;0.856558;0.863508;0.865844;0.865224;0.870459;0.872278;0.877542;0.879615;0.877296;0.882527;0.879312;0.882542;0.879090;0.876601;0.878503;0.873537;0.867657;0.870216;0.866836;0.859200;0.855938;0.853371;0.847475;0.843418;0.835147;0.829196;0.828756;0.816995;0.811935;0.804931;0.801695;0.787322;0.784449;0.779067;0.771029;0.765593;0.760481;0.751041;0.743167;0.734749;0.729767;0.723003;0.717893;0.708981;0.707030;0.698145;0.692073;0.690233;0.685072;0.678079;0.674182;0.668736;0.667156;0.659971;0.654575;0.652821;0.646463;0.647640;0.641512;0.638368;0.635837;0.634512;0.623339;0.627318;0.621985;0.620150;0.617339;0.614522;0.614900;0.609771;0.609932;0.604930;0.601539;0.604752;0.594477;0.595854;0.592515;0.590598;0.592205;0.588754;0.585564;0.585025;0.581484;0.585181;0.582718;0.577669;0.575890;0.575978;0.573532;0.572184;0.572179;0.568492;0.562868;0.563945;0.565677;0.565717;0.558169;0.557972;0.558232;0.556765;0.553408;0.554529;0.548534;0.551455;0.548501;0.543176;0.541919;0.538013;0.536319;0.542682;0.532437;0.528608;0.531501;0.529519;0.528199;0.528878;0.525021;0.521435;0.524575;0.520483;0.518348;0.520300;0.515597;0.518108;0.509787;0.514640;0.507270;0.505091
0.558537;0.563910;0.570197;0.572003;0.574512;0.580792;0.586081;0.590434;0.596903;0.603983;0.605326;0.615690;0.614687;0.621368;0.629724;0.634472;0.633992;0.644110;0.649700;0.650477;0.654044;0.667271;0.668809;0.677736;0.679898;0.684115;0.690641;0.692614;0.697896;0.702688;0.705109;0.711894;0.711081;0.719961;0.719321;0.722056;0.727153;0.724558;0.722997;0.728418;0.730638;0.727543;0.729839;0.728824;0.726238;0.726999;0.729405;0.721761;0.721526;0.721248;0.722388;0.717693;0.715676;0.710849;0.708160;0.710298;0.703270;0.698637;0.694974;0.692654;0.681806;0.681613;0.678684;0.675924;0.669933;0.665501;0.666473;0.658074;0.654884;0.655443;0.647461;0.644638;0.638728;0.637452;0.628810;0.627531;0.622365;0.619828;0.619205;0.622725;0.615621;0.609144;0.611219;0.607788;0.608832;0.598934;0.602741;0.598694;0.595190;0.593902;0.595590;0.591275;0.591333;0.594627;0.591523;0.589372;0.592458;0.593750;0.593720;0.590327;0.592444;0.592319;0.591205;0.593542;0.593415;0.592741;0.597470;0.596780;0.600510;0.599838;0.601225;0.604681;0.601717;0.610599;0.607630;0.611112;0.610867;0.614195;0.618930;0.621493;0.624931;0.623570;0.627432;0.634920;0.635021;0.635117;0.639859;0.644049;0.646068;0.644549;0.649157;0.655315;0.660128;0.662355;0.663565;0.666426;0.668163;0.671292;0.678312;0.676235;0.683989;0.683703;0.688909;0.691671;0.692404;0.695479;0.693576;0.700529;0.701276;0.705237;0.701284;0.704882;0.705795;0.708624;0.705637;0.705923;0.706039;0.710675;0.705835;0.702506;0.705522;0.699074;0.696185;0.702540;0.695064;0.692326;0.693589;0.684861;0.687578;0.682645;0.678123;0.680284;0.675821;0.670052;0.660760;0.658308;0.653071;0.650754;0.642955;0.646281;0.635306;0.630687;0.626600;0.620643;0.615630;0.613914;0.613307;0.602264;0.596435;0.595523;0.593558;0.582170;0.572379;0.572700;0.571911;0.563624;0.567166;0.559693;0.555923;0.552511
0.523849;0.529084;0.530033;0.530586;0.528673;0.529580;0.532780;0.528249;0.535774;0.535478;0.541441;0.546087;0.541330;0.546257;0.548280;0.558283;0.555772;0.554783;0.556954;0.555687;0.562757;0.560937;0.560326;0.567704;0.562795;0.574152;0.569276;0.568236;0.566405;0.575953;0.577396;0.581182;0.577522;0.581303;0.581572;0.580801;0.582782;0.580467;0.582679;0.583959;0.583316;0.581713;0.586546;0.585819;0.585257;0.583074;0.583714;0.581629;0.582443;0.578872;0.583115;0.583094;0.584262;0.586737;0.578510;0.586002;0.584157;0.577954;0.585612;0.581793;0.582100;0.580540;0.583579;0.582049;0.583003;0.583708;0.586400;0.587881;0.589552;0.589329;0.590533;0.595246;0.601313;0.599507;0.603831;0.608051;0.610288;0.609661;0.619281;0.623602;0.629539;0.636918;0.635216;0.645682;0.652407;0.657679;0.664024;0.667790;0.675418;0.687594;0.695386;0.701849;0.714677;0.717991;0.729073;0.735528;0.747706;0.751633;0.763178;0.769299;0.777372;0.783701;0.794198;0.804810;0.811990;0.817176;0.823545;0.834415;0.836850;0.843162;0.849004;0.854320;0.858995;0.860285;0.872315;0.871048;0.872955;0.877071;0.880706;0.881114;0.880429;0.881477;0.884324;0.880701;0.876261;0.879343;0.878440;0.872740;0.873143;0.869728;0.861224;0.855167;0.856599;0.851045;0.837256;0.841305;0.831315;0.829032;0.819281;0.810207;0.810606;0.796112;0.793081;0.781894;0.771944;0.768482;0.763198;0.746474;0.744615;0.738221;0.729808;0.722341;0.709718;0.708909;0.697176;0.697219;0.685701;0.681040;0.676667;0.668054;0.663364;0.654300;0.649838;0.642624;0.639305;0.634713;0.626653;0.624509;0.616084;0.609563;0.603835;0.599972;0.593701;0.593578;0.590554;0.585298;0.581711;0.576230;0.574204;0.574675;0.568408;0.562963;0.564999;0.558507;0.555775;0.556380;0.554125;0.552259;0.543752;0.545887;0.541851;0.543400;0.534564;0.536420;0.533394;0.526549;0.531517;0.527357;0.526908;0.522750
0.505883;0.505287;0.509756;0.506983;0.511595;0.513209;0.514444;0.512155;0.513400;0.511666;0.519696;0.514173;0.517167;0.525247;0.525727;0.529733;0.526532;0.527736;0.533999;0.533550;0.538401;0.539129;0.540353;0.546536;0.541870;0.551055;0.546142;0.554917;0.560369;0.558063;0.564711;0.569776;0.570146;0.581650;0.581069;0.589833;0.593096;0.599202;0.607082;0.607345;0.615811;0.621499;0.627599;0.631866;0.642979;0.648538;0.654309;0.661386;0.665720;0.673451;0.681192;0.687719;0.699017;0.703960;0.715411;0.717668;0.729416;0.737365;0.744274;0.751878;0.761290;0.770906;0.777632;0.789326;0.790499;0.797675;0.801549;0.809178;0.810911;0.822491;0.831466;0.832261;0.832614;0.841918;0.846263;0.848705;0.850103;0.851044;0.860374;0.857215;0.859550;0.859802;0.859869;0.857428;0.854068;0.857646;0.854270;0.854289;0.853843;0.848014;0.845175;0.840592;0.838807;0.838837;0.829212;0.825526;0.816274;0.815100;0.816167;0.807103;0.799855;0.793922;0.783568;0.775422;0.775864;0.764282;0.759180;0.755088;0.751070;0.746294;0.741845;0.736339;0.727841;0.724546;0.719364;0.712789;0.708869;0.702725;0.694833;0.684869;0.682642;0.682731;0.674843;0.675672;0.670294;0.665543;0.659558;0.657062;0.660172;0.654199;0.643070;0.639436;0.640307;0.640979;0.638747;0.631720;0.628586;0.626134;0.624280;0.622616;0.617991;0.620069;0.616204;0.612610;0.613374;0.608455;0.608346;0.608906;0.604263;0.600903;0.605761;0.598773;0.600217;0.601189;0.594202;0.595531;0.594816;0.591225;0.585960;0.583341;0.584518;0.583051;0.584665;0.577893;0.582105;0.574382;0.569350;0.570262;0.572682;0.570124;0.568830;0.569336;0.564267;0.560581;0.557059;0.559906;0.555036;0.553030;0.552525;0.545184;0.547103;0.546001;0.544179;0.540922;0.541827;0.538034;0.534365;0.533750;0.530836;0.531619;0.527918;0.524054;0.524450;0.520998;0.519879;0.521573;0.517169;0.516557;0.517473;0.510357
0.544735;0.547580;0.549956;0.552575;0.561037;0.559146;0.565574;0.567045;0.573094;0.580552;0.580100;0.585776;0.588789;0.591721;0.601152;0.604699;0.609256;0.618449;0.620303;0.624033;0.629309;0.630108;0.638519;0.635253;0.642018;0.645220;0.653918;0.653626;0.659298;0.666174;0.666498;0.668528;0.675416;0.677335;0.680071;0.679937;0.689393;0.688190;0.692618;0.694383;0.697487;0.698233;0.702078;0.703611;0.698664;0.701592;0.705893;0.707798;0.713861;0.709830;0.711829;0.706657;0.714366;0.712991;0.710830;0.714420;0.715053;0.710675;0.711141;0.713657;0.709750;0.711271;0.711732;0.706259;0.709952;0.710737;0.709151;0.707654;0.707387;0.705874;0.706955;0.702368;0.698345;0.696252;0.699594;0.701748;0.698178;0.696716;0.694965;0.689988;0.687966;0.687262;0.690824;0.686077;0.685880;0.684855;0.682031;0.681540;0.676736;0.681873;0.675407;0.677081;0.673494;0.676791;0.676945;0.674029;0.668315;0.669326;0.663451;0.670207;0.664290;0.660611;0.660985;0.659981;0.657503;0.657510;0.659785;0.654194;0.654552;0.658151;0.653297;0.654816;0.651840;0.650903;0.652000;0.653364;0.647894;0.653882;0.656915;0.649980;0.658036;0.653952;0.650138;0.653656;0.651684;0.652909;0.656366;0.655635;0.654701;0.652919;0.659024;0.660985;0.657337;0.657172;0.657549;0.661181;0.667195;0.662008;0.659486;0.660355;0.660839;0.662631;0.663344;0.663003;0.664935;0.664709;0.666727;0.663173;0.665280;0.663614;0.663006;0.666650;0.663374;0.665157;0.660025;0.661689;0.663994;0.658182;0.661068;0.660286;0.658217;0.655235;0.648894;0.651355;0.645716;0.644484;0.645410;0.646660;0.646156;0.634022;0.632221;0.631398;0.624647;0.622927;0.623030;0.618122;0.613104;0.612127;0.604614;0.599511;0.600242;0.594240;0.593480;0.583073;0.583642;0.580852;0.580272;0.575521;0.568520;0.567903;0.563475;0.559918;0.554864;0.556344;0.553235;0.551053;0.548315;0.542115;0.548369;0.538909
0.578062;0.575020;0.581652;0.589250;0.596130;0.600166;0.606772;0.613440;0.620121;0.621685;0.632325;0.640499;0.643292;0.654748;0.654798;0.664097;0.669316;0.680798;0.680347;0.691250;0.695180;0.702555;0.705537;0.720843;0.717717;0.724055;0.734787;0.737013;0.742163;0.750577;0.751727;0.756663;0.762093;0.762086;0.768295;0.769757;0.774552;0.775813;0.777391;0.778065;0.779374;0.778782;0.777218;0.780330;0.781083;0.779950;0.778672;0.773031;0.774147;0.772118;0.768450;0.760804;0.759962;0.757627;0.752234;0.754306;0.748173;0.742065;0.737154;0.729454;0.726216;0.724070;0.721253;0.712341;0.707444;0.704345;0.701742;0.691143;0.692192;0.684800;0.687784;0.686948;0.671238;0.671009;0.669956;0.666093;0.659836;0.660595;0.654917;0.650927;0.649571;0.641285;0.644971;0.645042;0.645373;0.639871;0.640294;0.640042;0.640866;0.644565;0.642726;0.642407;0.640131;0.644350;0.642685;0.647436;0.642219;0.644853;0.649126;0.648227;0.651088;0.648718;0.647412;0.654919;0.654106;0.652880;0.653955;0.653940;0.658442;0.658788;0.662528;0.665693;0.663210;0.664606;0.664480;0.666733;0.667624;0.667276;0.665812;0.669713;0.668757;0.665791;0.668380;0.672470;0.664363;0.672212;0.668320;0.664285;0.668791;0.662748;0.661419;0.661271;0.660396;0.656021;0.657038;0.657333;0.649903;0.650654;0.648935;0.643044;0.646531;0.640487;0.641945;0.639539;0.632998;0.637614;0.627636;0.632989;0.628362;0.627597;0.621784;0.621569;0.618265;0.612613;0.611053;0.614057;0.606607;0.604340;0.600066;0.601931;0.595675;0.594157;0.594171;0.592218;0.588395;0.586376;0.577496;0.579363;0.576686;0.576356;0.569957;0.569258;0.565566;0.563047;0.563945;0.562273;0.555972;0.558207;0.553852;0.552852;0.550856;0.551218;0.545982;0.546504;0.542546;0.542758;0.538252;0.536758;0.532150;0.532285;0.537170;0.533685;0.532821;0.530717;0.528025;0.528951;0.524490;0.526987;0.521381;0.515893
0.502938;0.505510;0.505175;0.504123;0.502453;0.501091;0.509292;0.509123;0.506226;0.508541;0.508770;0.507633;0.509475;0.511227;0.514762;0.512471;0.517495;0.514351;0.516683;0.520881;0.528388;0.522240;0.533299;0.537713;0.532333;0.541871;0.544569;0.542922;0.550926;0.554237;0.558809;0.561347;0.568700;0.576047;0.578018;0.582987;0.596089;0.596614;0.602209;0.612716;0.617519;0.625489;0.637422;0.642568;0.652271;0.663003;0.670410;0.677781;0.684369;0.700441;0.708361;0.718287;0.724408;0.734222;0.747104;0.756344;0.764953;0.774606;0.784854;0.795343;0.806790;0.813982;0.825626;0.835094;0.845264;0.851841;0.859873;0.866008;0.877407;0.881401;0.893635;0.888187;0.907541;0.903329;0.914594;0.912961;0.921746;0.919941;0.926524;0.929157;0.928262;0.927328;0.928726;0.928958;0.928020;0.924584;0.923756;0.919970;0.913306;0.910352;0.907820;0.903756;0.897971;0.888983;0.880337;0.875192;0.870354;0.861150;0.859894;0.847032;0.838725;0.829598;0.816237;0.814762;0.803911;0.797177;0.788134;0.780554;0.766022;0.764226;0.751613;0.742208;0.736573;0.724941;0.721907;0.714727;0.702839;0.698840;0.691735;0.682354;0.680984;0.673906;0.667704;0.660803;0.652971;0.649614;0.637496;0.634195;0.625660;0.622607;0.620521;0.619468;0.610469;0.611255;0.610459;0.605212;0.602141;0.594363;0.590698;0.591452;0.589815;0.589853;0.582385;0.580516;0.577338;0.577127;0.575034;0.575623;0.574263;0.572062;0.570783;0.562130;0.562197;0.565831;0.563445;0.565328;0.559754;0.560477;0.553482;0.555937;0.550846;0.549848;0.553969;0.553876;0.549122;0.548057;0.544261;0.544843;0.548145;0.544303;0.545821;0.542319;0.537725;0.541757;0.539675;0.537651;0.537039;0.536120;0.531918;0.527696;0.527663;0.528877;0.525851;0.527140;0.525508;0.528217;0.525983;0.524007;0.522894;0.523860;0.523995;0.520787;0.518516;0.519234;0.518893;0.517223;0.514059;0.513170;0.519791;0.513352
0.555734;0.563832;0.570476;0.573366;0.576884;0.576676;0.586917;0.591665;0.590359;0.601040;0.603819;0.605375;0.614311;0.620767;0.623055;0.629013;0.634733;0.645642;0.648310;0.655579;0.658039;0.665661;0.670518;0.673674;0.676289;0.686218;0.689821;0.697178;0.700554;0.707471;0.708294;0.713880;0.711747;0.715146;0.718073;0.721546;0.726513;0.727183;0.732550;0.733208;0.734498;0.739623;0.735769;0.742442;0.741538;0.743116;0.740641;0.738741;0.738513;0.742135;0.740013;0.736817;0.734377;0.731998;0.732284;0.726566;0.730024;0.722313;0.724247;0.719472;0.722423;0.712410;0.712776;0.710609;0.702715;0.704021;0.699012;0.695085;0.695552;0.694177;0.686693;0.686801;0.685038;0.678275;0.669473;0.669431;0.667122;0.668686;0.659411;0.660437;0.654736;0.650392;0.652986;0.649501;0.650678;0.645426;0.643088;0.642465;0.635840;0.635990;0.629587;0.629103;0.629885;0.627396;0.624671;0.623847;0.617543;0.619326;0.616600;0.617747;0.616015;0.617005;0.615378;0.611640;0.611947;0.611347;0.613295;0.608565;0.610781;0.604818;0.604551;0.609113;0.607086;0.613461;0.609181;0.612362;0.609832;0.618353;0.614740;0.615480;0.613861;0.617750;0.621602;0.618560;0.614845;0.621632;0.624212;0.628465;0.632608;0.624316;0.628680;0.634490;0.635933;0.635917;0.641941;0.642354;0.644361;0.648265;0.646329;0.649866;0.653959;0.654275;0.655730;0.660683;0.656882;0.663048;0.661341;0.666202;0.668700;0.667342;0.670842;0.666840;0.668848;0.673255;0.672396;0.670099;0.673411;0.669001;0.666514;0.667821;0.666558;0.668452;0.662146;0.663024;0.662075;0.657042;0.658614;0.656915;0.654323;0.653793;0.648869;0.646408;0.641931;0.639345;0.634418;0.627712;0.625704;0.626439;0.620080;0.619440;0.609454;0.609012;0.605913;0.601915;0.594384;0.593573;0.587785;0.586537;0.580311;0.574922;0.576649;0.566078;0.566058;0.560452;0.566174;0.556101;0.557303;0.552439;0.549173;0.542022
0.531365;0.526342;0.531097;0.529326;0.537182;0.538526;0.538400;0.541899;0.544930;0.548119;0.549705;0.548031;0.547800;0.553904;0.555173;0.560171;0.564126;0.566164;0.568783;0.574231;0.571630;0.578182;0.581432;0.583010;0.583501;0.588595;0.591781;0.597545;0.598150;0.599570;0.602927;0.600492;0.609665;0.608900;0.616976;0.614808;0.616524;0.621118;0.620928;0.624856;0.626069;0.627740;0.629480;0.632345;0.636171;0.637887;0.636152;0.641233;0.642834;0.644481;0.646742;0.644272;0.651140;0.649257;0.655420;0.655681;0.653120;0.653802;0.658439;0.657053;0.659246;0.662531;0.664125;0.666873;0.666713;0.668413;0.668350;0.664943;0.673369;0.673144;0.674323;0.672793;0.673943;0.674827;0.674590;0.676929;0.673890;0.675476;0.684292;0.666827;0.677688;0.680907;0.678045;0.675289;0.680290;0.679765;0.681316;0.676707;0.680785;0.680953;0.683885;0.679586;0.687008;0.683502;0.677807;0.685634;0.683322;0.682306;0.682990;0.679756;0.681065;0.685461;0.683730;0.686731;0.686675;0.688936;0.685443;0.690328;0.686515;0.687857;0.692079;0.692773;0.689208;0.686593;0.694144;0.695164;0.696261;0.694003;0.690782;0.700808;0.693526;0.699724;0.701778;0.700628;0.699122;0.702940;0.698975;0.707016;0.704391;0.705227;0.706266;0.710073;0.707831;0.712343;0.711425;0.710206;0.716298;0.714011;0.716107;0.715095;0.720139;0.722169;0.720416;0.720489;0.722081;0.720939;0.723295;0.724054;0.723270;0.719987;0.722232;0.718672;0.718421;0.714755;0.715533;0.714977;0.714277;0.712101;0.710510;0.715789;0.709618;0.709531;0.702829;0.700273;0.697032;0.690964;0.688401;0.689693;0.687729;0.681842;0.674359;0.668642;0.668491;0.664551;0.662142;0.652664;0.649334;0.647072;0.641487;0.634715;0.626058;0.624554;0.618977;0.611674;0.612798;0.608760;0.603194;0.596284;0.595714;0.589764;0.588946;0.579611;0.574292;0.574069;0.569017;0.564105;0.558742;0.559053;0.556243;0.548601
0.520167;0.514850;0.514420;0.521524;0.524841;0.528041;0.524776;0.528167;0.529890;0.529846;0.531209;0.533676;0.535017;0.539513;0.536097;0.542836;0.541601;0.547622;0.545397;0.547107;0.548681;0.550687;0.552600;0.556486;0.554384;0.560467;0.557716;0.560879;0.561718;0.564921;0.568235;0.566247;0.571322;0.573299;0.573798;0.574665;0.573347;0.570046;0.578807;0.577261;0.578347;0.582608;0.581385;0.583645;0.581791;0.585504;0.587544;0.588149;0.583926;0.586580;0.589397;0.587681;0.593366;0.590780;0.594801;0.591856;0.594018;0.597841;0.596791;0.599473;0.596603;0.599488;0.597446;0.600318;0.606295;0.609121;0.605314;0.611137;0.611850;0.609370;0.618049;0.618154;0.621005;0.624106;0.621192;0.626462;0.630384;0.637407;0.637055;0.641730;0.644987;0.651165;0.654589;0.658192;0.668410;0.666404;0.671040;0.675804;0.680643;0.689153;0.694073;0.701581;0.702969;0.710459;0.714143;0.719451;0.728289;0.733530;0.738786;0.746410;0.748040;0.756207;0.757916;0.765002;0.773045;0.776054;0.779860;0.782733;0.786324;0.795167;0.797389;0.800535;0.807096;0.805744;0.811791;0.807754;0.816627;0.815094;0.818531;0.821426;0.815535;0.820476;0.821488;0.825958;0.820585;0.820280;0.818636;0.815172;0.812535;0.812839;0.815240;0.811247;0.802991;0.803480;0.798574;0.794430;0.798815;0.789692;0.788183;0.781748;0.778585;0.772331;0.771863;0.767077;0.758048;0.751122;0.752769;0.744711;0.743844;0.734567;0.733236;0.722059;0.718392;0.712412;0.711149;0.709902;0.701924;0.694018;0.691114;0.688666;0.680336;0.675781;0.667384;0.665244;0.664263;0.656733;0.653028;0.650550;0.641525;0.634669;0.631077;0.629506;0.626995;0.621369;0.613849;0.609138;0.607267;0.601983;0.596327;0.588410;0.587511;0.588777;0.580111;0.572496;0.571934;0.567753;0.568874;0.562956;0.562502;0.558306;0.553318;0.548344;0.546021;0.546808;0.539995;0.535603;0.535301;0.537762;0.529126;0.534034
0.517474;0.514559;0.512672;0.521002;0.520726;0.519745;0.521822;0.522462;0.530939;0.529870;0.527450;0.528591;0.529975;0.534022;0.529745;0.536024;0.537275;0.536904;0.543379;0.541216;0.543276;0.545912;0.549223;0.552852;0.559718;0.552936;0.556709;0.562941;0.560041;0.557431;0.565997;0.570452;0.570915;0.570675;0.572959;0.576161;0.576720;0.586090;0.584432;0.588149;0.591848;0.587580;0.598692;0.598930;0.600527;0.601319;0.606226;0.605991;0.610499;0.611863;0.614559;0.619413;0.621122;0.629789;0.628738;0.631842;0.635911;0.636517;0.645322;0.648489;0.646763;0.650876;0.655162;0.660264;0.661980;0.667331;0.670347;0.673257;0.677709;0.683560;0.686205;0.691477;0.696980;0.702864;0.708911;0.708207;0.713862;0.721645;0.723436;0.728218;0.729689;0.739075;0.742929;0.747506;0.747950;0.754839;0.766883;0.766268;0.776912;0.776290;0.783431;0.789010;0.796991;0.797938;0.805310;0.806068;0.815717;0.816730;0.815909;0.828977;0.828873;0.836113;0.835760;0.841473;0.844696;0.853661;0.853509;0.857354;0.854511;0.858978;0.856812;0.857657;0.868053;0.863841;0.865361;0.864879;0.862652;0.864778;0.856271;0.853912;0.858758;0.852592;0.852580;0.847033;0.841681;0.838381;0.835783;0.826781;0.820364;0.812207;0.808254;0.805222;0.795554;0.788016;0.784595;0.778030;0.773014;0.760892;0.751909;0.744902;0.736279;0.725131;0.721220;0.713961;0.708062;0.695995;0.688051;0.680757;0.670705;0.666563;0.653589;0.645985;0.646220;0.633933;0.628889;0.618268;0.612761;0.606425;0.598148;0.596607;0.587109;0.583750;0.577235;0.574634;0.571353;0.564302;0.562234;0.553459;0.546390;0.546784;0.543267;0.546262;0.535671;0.539851;0.531159;0.528448;0.523890;0.528338;0.523115;0.524200;0.521505;0.522069;0.516877;0.514455;0.513903;0.514969;0.511187;0.514192;0.509599;0.510055;0.514739;0.508636;0.508519;0.508593;0.506717;0.503423;0.507067;0.503037;0.504652;0.505110
0.620809;0.626990;0.639066;0.645670;0.658628;0.664513;0.675563;0.682455;0.695888;0.706924;0.714093;0.721398;0.732221;0.748087;0.755255;0.766178;0.774294;0.786168;0.799951;0.808886;0.822431;0.832137;0.836721;0.849492;0.855960;0.870210;0.878396;0.887176;0.891383;0.897174;0.907977;0.917068;0.918323;0.919983;0.928139;0.933107;0.933362;0.931959;0.941905;0.941891;0.941368;0.936585;0.938448;0.934312;0.932405;0.932428;0.926622;0.918637;0.915406;0.907950;0.908760;0.894976;0.892759;0.879057;0.873218;0.864588;0.855334;0.848130;0.840445;0.832896;0.822327;0.808199;0.801102;0.786308;0.783347;0.774665;0.761559;0.748473;0.738037;0.728889;0.713563;0.711132;0.706854;0.694124;0.684690;0.675845;0.662472;0.656785;0.647877;0.642559;0.640618;0.633902;0.624628;0.622838;0.613452;0.610137;0.601360;0.599129;0.591173;0.594758;0.587106;0.583156;0.582628;0.578926;0.580318;0.580416;0.570301;0.577723;0.569988;0.563705;0.567117;0.565355;0.575243;0.563679;0.567617;0.568158;0.569698;0.569956;0.563395;0.564790;0.567852;0.563366;0.562700;0.566292;0.564175;0.560882;0.567607;0.571386;0.569410;0.565476;0.563000;0.561553;0.563869;0.560758;0.563695;0.561214;0.561577;0.562230;0.558657;0.556370;0.555113;0.560095;0.559235;0.551336;0.553080;0.554733;0.551115;0.547507;0.553959;0.549185;0.543953;0.543289;0.546874;0.538905;0.534456;0.537126;0.535827;0.533559;0.531212;0.534953;0.526717;0.529813;0.525523;0.527620;0.521815;0.525628;0.518667;0.521556;0.519264;0.517950;0.520497;0.516885;0.515728;0.510621;0.515169;0.518318;0.510911;0.515077;0.507046;0.512816;0.507874;0.508828;0.507249;0.506221;0.508117;0.506082;0.508785;0.504702;0.507550;0.506020;0.507499;0.504731;0.499503;0.503435;0.505662;0.502333;0.505849;0.503154;0.502047;0.497877;0.504380;0.501881;0.502363;0.502493;0.503021;0.497461;0.500040;0.499348;0.499462;0.506375
0.551916;0.558358;0.566647;0.567223;0.568059;0.571498;0.581292;0.582744;0.586242;0.590393;0.601496;0.598287;0.606463;0.613864;0.617172;0.623551;0.625327;0.634650;0.641107;0.644792;0.648840;0.651317;0.661888;0.666321;0.667527;0.673000;0.681312;0.684638;0.688016;0.696285;0.698498;0.704612;0.703050;0.707171;0.712031;0.714665;0.715050;0.717253;0.721501;0.726152;0.727093;0.727764;0.727449;0.735531;0.734950;0.732823;0.730811;0.731624;0.733769;0.734530;0.735798;0.731892;0.734606;0.728386;0.734105;0.725453;0.730282;0.730262;0.725540;0.718646;0.720426;0.718161;0.717131;0.713635;0.709912;0.711264;0.709242;0.704105;0.705668;0.698046;0.692736;0.688498;0.687705;0.690686;0.682087;0.683328;0.679110;0.671606;0.674005;0.669613;0.667430;0.665498;0.659165;0.657219;0.655053;0.648112;0.650366;0.643400;0.643691;0.642585;0.638469;0.629316;0.635081;0.628298;0.630958;0.623672;0.622422;0.620430;0.616454;0.615115;0.609952;0.615112;0.609550;0.608797;0.600370;0.602727;0.606644;0.602977;0.599762;0.596083;0.598780;0.602448;0.597878;0.594383;0.598521;0.597218;0.595319;0.601243;0.601442;0.600367;0.598354;0.604032;0.606148;0.606091;0.610011;0.609797;0.605677;0.616357;0.618712;0.625831;0.619003;0.628596;0.623466;0.630409;0.634025;0.639002;0.637406;0.644696;0.645953;0.649631;0.654600;0.657216;0.652767;0.661898;0.663921;0.666268;0.670768;0.671500;0.678001;0.672722;0.679746;0.682914;0.683410;0.683300;0.681305;0.683756;0.682532;0.683484;0.682105;0.685623;0.685001;0.682357;0.682333;0.678593;0.680856;0.677966;0.674873;0.667742;0.671795;0.664309;0.662475;0.665847;0.654434;0.657729;0.653812;0.647906;0.639508;0.640593;0.632326;0.631581;0.623366;0.620969;0.619547;0.612530;0.611686;0.607950;0.599844;0.596212;0.590554;0.589225;0.581700;0.581589;0.577669;0.567630;0.570302;0.566384;0.557417;0.558288;0.555999;0.549971
0.511360;0.518692;0.513877;0.519842;0.519784;0.519368;0.522294;0.526970;0.530934;0.530588;0.529369;0.535559;0.535389;0.537087;0.538893;0.536295;0.543155;0.547365;0.549337;0.551378;0.551216;0.554255;0.559657;0.564450;0.567038;0.570780;0.574236;0.576944;0.577877;0.578034;0.584964;0.585177;0.596912;0.597648;0.603288;0.604380;0.612432;0.616366;0.617970;0.629393;0.630994;0.636155;0.641657;0.650706;0.655377;0.662923;0.666805;0.669646;0.675379;0.682655;0.690187;0.692596;0.697561;0.703884;0.716089;0.720804;0.725454;0.731841;0.733764;0.742724;0.751049;0.752133;0.754636;0.764302;0.769986;0.777761;0.776697;0.784487;0.792231;0.791655;0.795273;0.797616;0.803841;0.805629;0.805005;0.809008;0.811668;0.807803;0.812562;0.809857;0.814615;0.809617;0.810978;0.806724;0.803184;0.806886;0.809101;0.803062;0.797154;0.795577;0.785770;0.790017;0.784160;0.775931;0.771827;0.767043;0.759197;0.760049;0.754697;0.747994;0.743118;0.736289;0.730090;0.728987;0.722940;0.718275;0.710378;0.704177;0.698554;0.694203;0.685210;0.690473;0.680349;0.672772;0.671850;0.667699;0.659902;0.661908;0.663516;0.650847;0.647956;0.652051;0.649414;0.645450;0.645330;0.641998;0.635588;0.636474;0.639288;0.633172;0.636357;0.630415;0.631264;0.633678;0.628044;0.633918;0.635552;0.634307;0.640624;0.631661;0.630807;0.636318;0.636950;0.633830;0.637250;0.638566;0.636822;0.636069;0.642487;0.638382;0.641425;0.642089;0.637583;0.635057;0.636842;0.635821;0.642146;0.638308;0.639154;0.641567;0.636791;0.640523;0.637256;0.637866;0.636040;0.630738;0.628742;0.624226;0.625519;0.623308;0.623284;0.617654;0.615229;0.613357;0.608575;0.605983;0.600868;0.598283;0.604026;0.591739;0.590889;0.583249;0.585952;0.580490;0.581116;0.570863;0.574556;0.567162;0.567416;0.562352;0.558338;0.552867;0.557215;0.550919;0.546200;0.540604;0.543697;0.540638;0.539958;0.530871
0.542937;0.545123;0.545563;0.547748;0.552046;0.555101;0.554392;0.563556;0.570439;0.569802;0.570211;0.577597;0.582719;0.588993;0.586561;0.595159;0.601133;0.606273;0.610918;0.613034;0.614084;0.624141;0.627557;0.633925;0.638366;0.644122;0.646606;0.650711;0.655133;0.659193;0.669377;0.672252;0.674362;0.678388;0.681825;0.688659;0.696012;0.699477;0.699638;0.707756;0.711189;0.713902;0.713247;0.721521;0.723457;0.726673;0.727662;0.731022;0.739873;0.742153;0.743197;0.749254;0.753273;0.755678;0.756598;0.759235;0.764620;0.765335;0.768527;0.770377;0.772731;0.774475;0.779198;0.783854;0.785927;0.787753;0.786830;0.788899;0.794297;0.789940;0.793421;0.792619;0.794718;0.795545;0.796369;0.794465;0.792842;0.797893;0.797459;0.793177;0.798684;0.792015;0.790967;0.795126;0.789988;0.790741;0.788676;0.790604;0.786183;0.785259;0.777716;0.775231;0.777554;0.768293;0.772046;0.769511;0.760053;0.760630;0.758282;0.758406;0.749231;0.746637;0.742302;0.739350;0.734149;0.740631;0.728749;0.729885;0.720872;0.717683;0.719275;0.713510;0.711075;0.705899;0.700805;0.700489;0.695475;0.692391;0.683000;0.680516;0.680556;0.679536;0.671142;0.667027;0.664507;0.662471;0.652268;0.652164;0.649381;0.651082;0.639987;0.641572;0.637336;0.629379;0.628784;0.622196;0.618321;0.612066;0.615927;0.607122;0.604788;0.605154;0.603184;0.596756;0.592380;0.592353;0.590138;0.586561;0.576077;0.581433;0.572324;0.571921;0.571290;0.565636;0.565393;0.560031;0.556255;0.554766;0.557708;0.551423;0.548608;0.545830;0.545614;0.541704;0.540232;0.536773;0.535211;0.537010;0.533379;0.529457;0.530269;0.533029;0.527591;0.526937;0.526957;0.528242;0.523937;0.524851;0.524814;0.521476;0.513287;0.524962;0.515506;0.516956;0.518530;0.512718;0.513853;0.512447;0.511294;0.507592;0.512021;0.510892;0.505706;0.508412;0.509118;0.506149;0.507005;0.509947;0.507070;0.502854
0.559505;0.560443;0.566505;0.569438;0.575430;0.579711;0.587162;0.585644;0.591662;0.596667;0.597901;0.607897;0.610492;0.620959;0.619509;0.635210;0.635154;0.639628;0.646577;0.652523;0.659915;0.664712;0.669313;0.672056;0.677271;0.686623;0.684563;0.688957;0.692035;0.702238;0.705094;0.705833;0.708868;0.714200;0.718796;0.718036;0.724866;0.722377;0.730143;0.730679;0.725338;0.735391;0.734953;0.738247;0.736240;0.731456;0.735593;0.731665;0.733443;0.739988;0.737184;0.733864;0.733440;0.725628;0.728612;0.730111;0.723939;0.722842;0.725213;0.724318;0.715326;0.720941;0.714322;0.714393;0.710650;0.707485;0.710708;0.707809;0.704989;0.700370;0.703374;0.701016;0.697815;0.702098;0.698335;0.690684;0.696573;0.695677;0.701476;0.692998;0.695701;0.693223;0.697023;0.698320;0.695831;0.696850;0.698720;0.699542;0.705743;0.703355;0.701354;0.705204;0.707740;0.709613;0.712759;0.720668;0.720007;0.717718;0.722772;0.720058;0.727280;0.728829;0.729427;0.735816;0.728459;0.732043;0.740731;0.736864;0.742083;0.741750;0.738096;0.741219;0.743120;0.739863;0.747184;0.745007;0.741167;0.743794;0.739780;0.740479;0.738596;0.736408;0.725755;0.734435;0.725997;0.726779;0.722949;0.719247;0.717568;0.713565;0.705385;0.703166;0.698073;0.693061;0.689776;0.687719;0.681171;0.676568;0.671076;0.663735;0.660956;0.654580;0.647318;0.638164;0.630718;0.630584;0.622177;0.622250;0.612884;0.613901;0.604243;0.604311;0.594052;0.590901;0.587003;0.581389;0.580217;0.570181;0.568163;0.561373;0.562425;0.558336;0.550783;0.553027;0.546724;0.547652;0.538343;0.539968;0.537129;0.537003;0.529135;0.533303;0.529985;0.525314;0.522912;0.520954;0.522242;0.518647;0.512447;0.518146;0.514047;0.515464;0.515311;0.513019;0.511564;0.511079;0.507784;0.509558;0.506541;0.505858;0.507015;0.508728;0.504174;0.511926;0.510532;0.505477;0.507620;0.505550;0.504384;0.502908
0.511766;0.515145;0.516175;0.516710;0.516621;0.522901;0.521859;0.523123;0.530227;0.529127;0.532387;0.533472;0.530858;0.532910;0.535082;0.535124;0.536274;0.540271;0.546167;0.548052;0.549135;0.547255;0.552115;0.551549;0.554381;0.556654;0.558466;0.558628;0.562544;0.570266;0.565358;0.572152;0.576187;0.584093;0.581433;0.584031;0.588308;0.588636;0.585530;0.591036;0.598174;0.598420;0.597754;0.598728;0.601416;0.597791;0.606168;0.612802;0.614653;0.614533;0.617357;0.619235;0.623791;0.630447;0.630103;0.631970;0.633932;0.637839;0.636571;0.641973;0.641438;0.643046;0.647382;0.653278;0.655786;0.657998;0.658793;0.660996;0.660336;0.667171;0.666219;0.668758;0.668222;0.673852;0.678584;0.679591;0.671011;0.683158;0.675640;0.679431;0.680237;0.685455;0.682202;0.684952;0.683809;0.690830;0.687060;0.688630;0.693799;0.696929;0.694189;0.694798;0.696843;0.694892;0.693993;0.695244;0.699942;0.697597;0.698321;0.692481;0.699774;0.697767;0.698120;0.701277;0.703244;0.703945;0.701540;0.705303;0.702825;0.703953;0.700202;0.702068;0.711558;0.709855;0.708094;0.707991;0.710039;0.712687;0.711443;0.711909;0.714525;0.715571;0.710877;0.716881;0.721138;0.720150;0.718544;0.727718;0.719574;0.723692;0.730532;0.728015;0.727827;0.727411;0.734369;0.730975;0.729785;0.730001;0.732559;0.737212;0.739807;0.738044;0.741590;0.737535;0.742973;0.740130;0.738656;0.738682;0.739399;0.743124;0.740060;0.736668;0.742641;0.736894;0.738097;0.736658;0.737845;0.734962;0.726406;0.725206;0.727153;0.723105;0.719386;0.721050;0.715983;0.712091;0.709244;0.704149;0.698712;0.698110;0.691800;0.690938;0.680658;0.678282;0.671310;0.666984;0.664121;0.657239;0.652402;0.646200;0.644367;0.635663;0.630289;0.631501;0.625975;0.617339;0.609493;0.607736;0.604913;0.600539;0.597763;0.592932;0.587803;0.576400;0.574275;0.574430;0.570322;0.567571;0.561394;0.561948
0.519929;0.520521;0.523761;0.523550;0.525275;0.527696;0.532526;0.535384;0.532827;0.536885;0.539357;0.540691;0.543883;0.547053;0.549819;0.553566;0.558552;0.560261;0.561714;0.565662;0.570351;0.571798;0.573100;0.582695;0.583926;0.586255;0.585450;0.598661;0.597479;0.594653;0.603902;0.609008;0.615128;0.613521;0.627338;0.630687;0.636938;0.639231;0.641882;0.654559;0.656941;0.661319;0.668265;0.675145;0.682382;0.693000;0.694991;0.698887;0.702041;0.712582;0.721865;0.722025;0.733956;0.742023;0.742342;0.749082;0.758118;0.762442;0.769902;0.772646;0.784521;0.792688;0.796665;0.800448;0.804369;0.811593;0.815537;0.820322;0.819416;0.834722;0.834104;0.828709;0.836123;0.842562;0.845338;0.840647;0.848710;0.844941;0.845496;0.847961;0.845819;0.845490;0.849702;0.839580;0.834184;0.839388;0.835404;0.829545;0.827138;0.822539;0.817772;0.812983;0.811004;0.805523;0.799168;0.793894;0.785273;0.776748;0.774440;0.764372;0.756706;0.758733;0.748497;0.738918;0.730202;0.728947;0.720388;0.714156;0.706320;0.706181;0.692885;0.691122;0.683966;0.674750;0.672705;0.668941;0.662225;0.660114;0.653777;0.647144;0.640986;0.639406;0.635451;0.630358;0.629874;0.624033;0.619658;0.618708;0.615610;0.613174;0.611371;0.612823;0.608701;0.610185;0.604284;0.607238;0.605216;0.598421;0.605135;0.602737;0.596879;0.597876;0.591181;0.598609;0.599020;0.595931;0.595370;0.595232;0.601274;0.595066;0.595747;0.593741;0.596650;0.592043;0.596744;0.595362;0.597192;0.591829;0.586904;0.590099;0.587765;0.587418;0.594323;0.585314;0.582471;0.584627;0.583910;0.580486;0.582096;0.576873;0.572391;0.575024;0.574809;0.571174;0.567571;0.562479;0.560989;0.563028;0.561842;0.560684;0.557871;0.552570;0.556628;0.557047;0.551187;0.550245;0.546671;0.541097;0.544766;0.537783;0.536120;0.533436;0.532905;0.529812;0.531684;0.528216;0.530259;0.523011;0.522783;0.522276
0.501614;0.505050;0.502913;0.508680;0.500700;0.501974;0.508324;0.509521;0.507130;0.507239;0.506901;0.512245;0.509395;0.516798;0.514411;0.515643;0.516803;0.523125;0.518758;0.523001;0.525722;0.527197;0.528899;0.527881;0.537070;0.535552;0.540404;0.542945;0.549273;0.550977;0.559985;0.557759;0.571542;0.571581;0.583470;0.584666;0.589234;0.595214;0.601864;0.604308;0.619455;0.621075;0.630651;0.641249;0.648788;0.657446;0.666433;0.673270;0.684259;0.691424;0.700206;0.713168;0.720623;0.725572;0.741532;0.755870;0.762570;0.774199;0.779765;0.791838;0.802294;0.807117;0.818227;0.825983;0.837763;0.845387;0.852849;0.863941;0.871488;0.878980;0.881031;0.886080;0.898917;0.900669;0.904121;0.911824;0.916884;0.914100;0.919264;0.919266;0.918188;0.917233;0.917086;0.924095;0.919464;0.917919;0.917845;0.913426;0.907027;0.907541;0.901847;0.892363;0.886183;0.882581;0.879283;0.868301;0.867927;0.861172;0.850530;0.847328;0.836610;0.825741;0.822706;0.813669;0.805050;0.798164;0.783384;0.774922;0.771452;0.756306;0.751413;0.749284;0.736789;0.728245;0.716591;0.708544;0.705713;0.695568;0.691271;0.685557;0.680593;0.673441;0.664455;0.660031;0.657681;0.644215;0.640056;0.636901;0.628775;0.629017;0.621702;0.616917;0.617895;0.610233;0.605991;0.603607;0.600861;0.593879;0.595600;0.593938;0.588724;0.586623;0.585075;0.578423;0.579703;0.571632;0.573556;0.572727;0.571655;0.563190;0.567643;0.559888;0.561975;0.557628;0.555279;0.555396;0.559317;0.552027;0.555693;0.551904;0.551706;0.549968;0.544839;0.549409;0.543452;0.539366;0.544398;0.543462;0.541204;0.534470;0.535878;0.536583;0.536094;0.533679;0.537128;0.531776;0.528651;0.529994;0.526709;0.522315;0.520763;0.526872;0.523520;0.522885;0.518595;0.519140;0.516363;0.519714;0.518535;0.522593;0.520415;0.512133;0.513691;0.514814;0.511238;0.509886;0.509583;0.511327;0.510457;0.502450
0.515101;0.510677;0.514480;0.514540;0.521191;0.514741;0.513681;0.524063;0.525632;0.522354;0.526565;0.523712;0.528886;0.527563;0.529759;0.534098;0.536244;0.531318;0.533262;0.537594;0.538088;0.538691;0.536664;0.543279;0.543792;0.542143;0.543855;0.543138;0.551854;0.548765;0.549457;0.551729;0.552652;0.557803;0.556776;0.556205;0.557413;0.557832;0.567281;0.566373;0.569803;0.569087;0.570581;0.572644;0.577050;0.574813;0.576622;0.579737;0.572217;0.578378;0.583922;0.581121;0.578913;0.586798;0.589468;0.590607;0.593454;0.592149;0.598046;0.601379;0.599051;0.601279;0.604373;0.606191;0.613746;0.615464;0.615597;0.622722;0.623886;0.629085;0.634192;0.639299;0.640406;0.645043;0.649407;0.655782;0.659579;0.666041;0.669329;0.678907;0.681503;0.685357;0.697006;0.701726;0.706220;0.716490;0.719391;0.726752;0.736818;0.746136;0.748066;0.757801;0.765844;0.774568;0.777366;0.792500;0.796479;0.807065;0.812290;0.817034;0.826598;0.832875;0.837372;0.848974;0.851309;0.859664;0.867635;0.862311;0.878595;0.884623;0.887822;0.890367;0.889495;0.893701;0.895192;0.893655;0.901851;0.900912;0.901052;0.896735;0.900844;0.896566;0.900647;0.896773;0.894248;0.890801;0.884337;0.878727;0.871595;0.868217;0.863864;0.858827;0.847046;0.842244;0.837034;0.828758;0.824886;0.813019;0.807637;0.793086;0.785404;0.779671;0.770472;0.758785;0.751872;0.747741;0.733965;0.725897;0.714503;0.710555;0.700791;0.692225;0.683947;0.673957;0.663831;0.656798;0.652730;0.640538;0.635952;0.628054;0.622106;0.618029;0.611684;0.606641;0.598045;0.591727;0.588937;0.580987;0.578247;0.575568;0.572049;0.564638;0.565744;0.559663;0.557853;0.549877;0.548791;0.546256;0.544879;0.541036;0.538607;0.535163;0.533170;0.523508;0.526996;0.523942;0.527235;0.525649;0.525693;0.524858;0.522098;0.516993;0.521321;0.518769;0.511837;0.516499;0.512064;0.513284;0.518799;0.510919
0.581812;0.588886;0.593922;0.598951;0.603979;0.610799;0.619214;0.621402;0.635143;0.639735;0.637545;0.647379;0.655975;0.665366;0.674839;0.679439;0.689682;0.692316;0.702092;0.711238;0.718831;0.724625;0.729470;0.738220;0.748038;0.754735;0.759055;0.767469;0.772118;0.776150;0.785500;0.785117;0.787129;0.794511;0.792318;0.799423;0.806842;0.806962;0.812541;0.811771;0.809999;0.812532;0.815126;0.816197;0.817233;0.812248;0.810091;0.813399;0.808351;0.806975;0.806611;0.799086;0.798526;0.791643;0.793413;0.787926;0.787678;0.779837;0.777140;0.768580;0.768355;0.760589;0.756597;0.747076;0.748549;0.742275;0.731926;0.722516;0.720542;0.710831;0.711253;0.704493;0.700727;0.694073;0.685181;0.683462;0.681775;0.673680;0.665654;0.666530;0.661839;0.655710;0.647611;0.648180;0.641952;0.636228;0.638803;0.632139;0.626569;0.620298;0.615684;0.614813;0.615269;0.607696;0.608019;0.603290;0.599332;0.600644;0.596523;0.591816;0.593208;0.589112;0.585453;0.582610;0.589332;0.580811;0.583970;0.583025;0.575429;0.579066;0.577983;0.577171;0.576422;0.575330;0.579071;0.577776;0.569835;0.572723;0.575755;0.575424;0.581907;0.577739;0.578235;0.580556;0.578631;0.582419;0.579468;0.583552;0.586894;0.590257;0.588825;0.588269;0.591121;0.588334;0.593581;0.596303;0.600832;0.595490;0.599426;0.601443;0.608440;0.606714;0.605169;0.609927;0.610048;0.615280;0.612955;0.613200;0.610876;0.618268;0.613350;0.616946;0.615957;0.616675;0.610707;0.618476;0.619580;0.617759;0.618037;0.613021;0.615504;0.621462;0.614573;0.616917;0.613628;0.611615;0.610773;0.608319;0.608705;0.604549;0.605190;0.603362;0.598056;0.598713;0.595153;0.596393;0.589677;0.590332;0.582807;0.584027;0.578114;0.576306;0.575227;0.571172;0.568996;0.565498;0.559401;0.563288;0.558061;0.554993;0.551036;0.545155;0.548814;0.545256;0.544783;0.537706;0.539008;0.536911;0.531017;0.530072
0.501323;0.504194;0.509371;0.505742;0.511921;0.510509;0.510465;0.511948;0.512203;0.509103;0.511827;0.517240;0.514255;0.521160;0.519230;0.519497;0.518434;0.526718;0.523817;0.527778;0.529105;0.535269;0.539756;0.535398;0.541185;0.542659;0.545345;0.547010;0.551835;0.559395;0.561598;0.565191;0.566870;0.573391;0.578583;0.581578;0.585843;0.591444;0.591499;0.602273;0.606477;0.616725;0.623593;0.628221;0.629143;0.640033;0.649511;0.655377;0.656427;0.666401;0.672815;0.686649;0.689799;0.701897;0.705797;0.711590;0.719202;0.732842;0.736968;0.742417;0.752270;0.756386;0.766724;0.776840;0.778799;0.788046;0.796833;0.801445;0.807863;0.811812;0.817201;0.825452;0.828327;0.833489;0.832623;0.837770;0.843072;0.844671;0.848334;0.844880;0.849697;0.848354;0.848594;0.852196;0.849112;0.849290;0.851189;0.847157;0.846461;0.840543;0.842395;0.834923;0.834807;0.831105;0.818687;0.818906;0.817601;0.812133;0.806259;0.802278;0.797219;0.798714;0.787307;0.777922;0.776120;0.770688;0.764198;0.761006;0.750215;0.747923;0.746016;0.736832;0.730866;0.730732;0.720260;0.715960;0.715832;0.707222;0.701093;0.695193;0.694947;0.690660;0.683719;0.683051;0.675118;0.673593;0.677054;0.669137;0.665855;0.665503;0.660232;0.657178;0.654778;0.655025;0.650330;0.652167;0.652424;0.645658;0.642413;0.638809;0.645548;0.639309;0.639735;0.642941;0.637010;0.633795;0.635622;0.630399;0.629521;0.632901;0.625806;0.623876;0.624253;0.626053;0.624959;0.619975;0.618896;0.616058;0.619600;0.614105;0.611708;0.613629;0.613033;0.610609;0.606737;0.598301;0.601554;0.604616;0.600160;0.592360;0.596192;0.588141;0.593153;0.585560;0.587735;0.579577;0.582519;0.580523;0.574880;0.576874;0.568933;0.572054;0.564612;0.562877;0.558383;0.559782;0.553507;0.552226;0.550560;0.547318;0.547759;0.545936;0.545740;0.540949;0.540779;0.536702;0.536695;0.534499;0.533531;0.535240
0.558172;0.563118;0.562039;0.567760;0.578552;0.572651;0.580430;0.585049;0.588900;0.595777;0.601232;0.604080;0.613865;0.616897;0.623705;0.625619;0.634740;0.638859;0.646324;0.648811;0.655113;0.659291;0.667296;0.667367;0.668952;0.678200;0.686884;0.693259;0.693245;0.697241;0.705453;0.707799;0.713835;0.712944;0.715317;0.722498;0.723055;0.725696;0.731239;0.733409;0.735043;0.736875;0.739924;0.739713;0.739797;0.739987;0.742286;0.747284;0.742071;0.747448;0.740174;0.741972;0.741881;0.745070;0.738674;0.741735;0.737492;0.736936;0.736955;0.740444;0.734165;0.734819;0.732057;0.733407;0.733905;0.731342;0.726013;0.722929;0.724550;0.724231;0.728644;0.717314;0.722440;0.719384;0.717586;0.719673;0.716106;0.715068;0.713237;0.716250;0.715801;0.715201;0.713370;0.709732;0.715951;0.709343;0.711095;0.712179;0.709552;0.710475;0.717091;0.707085;0.717948;0.713351;0.717322;0.717303;0.718776;0.718125;0.716808;0.713885;0.718788;0.722049;0.720164;0.718413;0.723488;0.718015;0.728082;0.722746;0.723553;0.717851;0.720015;0.720479;0.724348;0.717699;0.716489;0.714316;0.714765;0.712032;0.714426;0.714530;0.715869;0.709416;0.707526;0.700268;0.699241;0.700568;0.697242;0.689149;0.690089;0.688055;0.684542;0.680739;0.671339;0.673054;0.671132;0.663954;0.659164;0.662555;0.652603;0.650352;0.638519;0.645536;0.636832;0.633412;0.628605;0.622449;0.620860;0.616126;0.611829;0.611096;0.600658;0.601594;0.600201;0.596816;0.588873;0.581887;0.576829;0.576924;0.577603;0.568285;0.571634;0.564775;0.562272;0.562165;0.558535;0.552997;0.550116;0.550118;0.546327;0.544981;0.543983;0.540871;0.539335;0.535834;0.539889;0.533314;0.532216;0.528689;0.526851;0.528556;0.525968;0.527485;0.524057;0.526150;0.522517;0.520783;0.516757;0.516511;0.514815;0.515117;0.512584;0.516722;0.519297;0.514708;0.512907;0.517058;0.511949;0.510603;0.512492;0.509466
0.615837;0.617955;0.630668;0.635655;0.644542;0.653350;0.664832;0.674063;0.681559;0.689394;0.702306;0.712090;0.718438;0.730465;0.741679;0.747512;0.758448;0.763858;0.776915;0.790286;0.796799;0.807178;0.815167;0.826170;0.836554;0.849357;0.844284;0.858181;0.865619;0.872137;0.878690;0.886909;0.889563;0.896009;0.892500;0.906764;0.904696;0.909058;0.908067;0.911388;0.911741;0.912195;0.909601;0.907290;0.902647;0.901812;0.903132;0.893800;0.890956;0.884374;0.879627;0.868522;0.863717;0.856472;0.853957;0.840830;0.832605;0.831529;0.820147;0.808463;0.803093;0.791816;0.786011;0.766903;0.760351;0.752525;0.746164;0.737705;0.730021;0.714776;0.708597;0.703861;0.690311;0.682968;0.672852;0.665872;0.656276;0.645459;0.646030;0.633954;0.632532;0.621165;0.619421;0.612011;0.605532;0.604323;0.595635;0.592293;0.588708;0.585333;0.581857;0.583967;0.579519;0.576098;0.575624;0.571993;0.564489;0.570193;0.565153;0.564420;0.564117;0.559611;0.559120;0.563411;0.559361;0.563377;0.558283;0.561220;0.553798;0.557223;0.560670;0.559774;0.558229;0.564070;0.562603;0.559556;0.561076;0.560391;0.563453;0.563628;0.557821;0.562193;0.562900;0.564186;0.564360;0.563502;0.563391;0.559595;0.565064;0.564097;0.563177;0.562843;0.566996;0.562996;0.559968;0.563732;0.563636;0.566498;0.561759;0.562699;0.562584;0.562898;0.559779;0.557838;0.559463;0.558467;0.562585;0.559902;0.558187;0.560359;0.561527;0.560529;0.557488;0.551109;0.556221;0.556601;0.551068;0.551272;0.550648;0.547450;0.558789;0.545619;0.549379;0.544190;0.541567;0.545505;0.541709;0.541692;0.542436;0.540793;0.540302;0.540579;0.537743;0.537730;0.536491;0.538016;0.531438;0.533018;0.536498;0.525946;0.525413;0.527649;0.526260;0.521291;0.528474;0.522220;0.523770;0.522225;0.521109;0.515532;0.519308;0.516429;0.517669;0.512596;0.514200;0.510663;0.509070;0.514518;0.508787;0.506947
0.545635;0.551083;0.552210;0.559048;0.556678;0.564490;0.567963;0.572137;0.575127;0.576891;0.586252;0.588108;0.591971;0.594714;0.597173;0.605465;0.608772;0.616879;0.618873;0.617013;0.622786;0.631906;0.633554;0.639522;0.642368;0.650303;0.650561;0.656586;0.658131;0.662621;0.664770;0.667711;0.675867;0.677347;0.680312;0.680961;0.686788;0.680430;0.690195;0.695290;0.690073;0.695394;0.693803;0.694003;0.700653;0.698934;0.699638;0.702023;0.702631;0.699803;0.695882;0.695983;0.694964;0.702296;0.697442;0.692099;0.691347;0.694268;0.696201;0.692560;0.692303;0.686143;0.683015;0.682276;0.683101;0.681094;0.680119;0.678002;0.678204;0.673284;0.674015;0.666026;0.670876;0.667760;0.663936;0.661639;0.663656;0.658006;0.656996;0.652282;0.654332;0.651536;0.647834;0.644702;0.643308;0.646018;0.642196;0.643434;0.643225;0.638435;0.635705;0.635408;0.635321;0.632519;0.634649;0.633809;0.629969;0.633292;0.630804;0.631067;0.628286;0.625938;0.626548;0.627858;0.627739;0.626112;0.629038;0.625488;0.626682;0.625230;0.627500;0.630743;0.626966;0.630219;0.627187;0.630191;0.630087;0.630183;0.633932;0.635128;0.636914;0.636349;0.638973;0.640275;0.640713;0.643881;0.647866;0.648552;0.652124;0.651786;0.653076;0.656214;0.657856;0.660870;0.666189;0.670159;0.669322;0.665620;0.674017;0.675727;0.673953;0.674681;0.679520;0.682327;0.682571;0.679203;0.684437;0.688239;0.688256;0.687754;0.690733;0.692402;0.688574;0.693626;0.692551;0.693621;0.690890;0.690320;0.688135;0.688167;0.690841;0.687447;0.681063;0.680560;0.678028;0.680555;0.673529;0.671099;0.666900;0.666244;0.662664;0.659736;0.653214;0.646783;0.645228;0.643255;0.636632;0.636473;0.630454;0.625249;0.619611;0.618924;0.614228;0.607822;0.601505;0.595735;0.591153;0.585470;0.582275;0.582999;0.577211;0.568310;0.564830;0.564506;0.556144;0.556252;0.551052;0.548075;0.541238;0.536656
