1000,1008,1016,1024,1032,1040,1048,1056,1064,1072,1080,1088,1096,1104,1112,1120,1128,1136,1144,1152,1160,1168,1176,1184,1192,1200,1208,1216,1224,1232,1240,1248,1256,1264,1272,1280,1288,1296,1304,1312,1320,1328,1336,1344,1352,1360,1368,1376,1384,1392,1400,1408,1416,1424,1432,1440,1448,1456,1464,1472,1480,1488,1496,1504,1512,1520,1528,1536,1544,1552,1560,1568,1576,1584,1592,1600,1608,1616,1624,1632,1640,1648,1656,1664,1672,1680,1688,1696,1704,1712,1720,1728,1736,1744,1752,1760,1768,1776,1784,1792,1800,1808,1816,1824,1832,1840,1848,1856,1864,1872,1880,1888,1896,1904,1912,1920,1928,1936,1944,1952,1960,1968,1976,1984,1992,2000,2008,2016,2024,2032,2040,2048,2056,2064,2072,2080,2088,2096,2104,2112,2120,2128,2136,2144,2152,2160,2168,2176,2184,2192,2200,2208,2216,2224,2232,2240,2248,2256,2264,2272,2280,2288,2296,2304,2312,2320,2328,2336,2344,2352,2360,2368,2376,2384,2392,2400
0.68966910,0.69054170,0.69113600,0.69263700,0.69354370,0.69476730,0.69601170,0.69678830,0.69837700,0.69896570,0.70065270,0.70084870,0.70190470,0.70222000,0.70264870,0.70284000,0.70112430,0.69957530,0.69800030,0.69539200,0.69185030,0.68852570,0.68539630,0.68261830,0.67961670,0.67743830,0.67804570,0.68045700,0.68420900,0.68864270,0.69232230,0.69437700,0.69652270,0.69838870,0.69942630,0.70089370,0.70209230,0.70347170,0.70402770,0.70402970,0.70339770,0.70117000,0.69783230,0.69271930,0.68680500,0.67986430,0.67373100,0.66797700,0.66126030,0.65151100,0.63745270,0.61397370,0.58527030,0.55885900,0.53945100,0.52744730,0.52280630,0.52223800,0.52328170,0.52549400,0.52965800,0.53448170,0.53999130,0.54562430,0.55054600,0.55538570,0.55910600,0.56160900,0.56320770,0.56558030,0.56754400,0.56945900,0.57200570,0.57425100,0.57755570,0.58239570,0.58742900,0.59279470,0.59365730,0.59565330,0.59689930,0.59643030,0.59272030,0.58586730,0.58134070,0.57692770,0.57073330,0.55988230,0.55013300,0.53904800,0.53303600,0.53145470,0.53837370,0.54178030,0.54277970,0.54344200,0.54663130,0.55056570,0.55391600,0.55954670,0.56336600,0.56584100,0.56777570,0.57008900,0.57316930,0.57540430,0.57855730,0.57906800,0.58013370,0.57537000,0.56227230,0.51982900,0.47562170,0.42183370,0.38709300,0.36635930,0.36213030,0.36824230,0.37952600,0.39286000,0.40595700,0.41698470,0.43027730,0.44185300,0.45015200,0.45727630,0.45793470,0.45656570,0.45091670,0.44232470,0.43076000,0.41929200,0.40829600,0.39649330,0.38977700,0.38244200,0.37625800,0.37349730,0.37123930,0.37041170,0.37047400,0.37081730,0.37338000,0.37419730,0.38127530,0.38593830,0.39159400,0.39734630,0.40357170,0.40788830,0.41325970,0.41634970,0.41584700,0.41610870,0.40845200,0.39616630,0.38072970,0.36259400,0.34205770,0.32950370,0.32238530,0.31769700,0.30830330,0.29656400,0.29394170,0.30298130,0.30483830,0.30174770,0.29979300,0.29866300,0.30399700,0.30533130,0.30517930,0.30560100,0.30843470,0.30966800
0.66349540,0.66500330,0.66631000,0.66729930,0.66854400,0.66927830,0.67038770,0.67121630,0.67262600,0.67303000,0.67370400,0.67465170,0.67522500,0.67529730,0.67543300,0.67457500,0.67384000,0.67171130,0.67019930,0.66760570,0.66482430,0.66163930,0.65853200,0.65491400,0.65255730,0.65120570,0.65135970,0.65248700,0.65579170,0.65955370,0.66222730,0.66471230,0.66618530,0.66748770,0.66820930,0.66963870,0.67042830,0.67173970,0.67203700,0.67131470,0.67087200,0.66931900,0.66531000,0.66038430,0.65442030,0.64759270,0.64130200,0.63636670,0.63056670,0.62148630,0.60794330,0.58601900,0.55796170,0.53257700,0.51174070,0.49965130,0.49410370,0.49208370,0.49190470,0.49357900,0.49669570,0.50072570,0.50510570,0.51028100,0.51508170,0.51919700,0.52235570,0.52490500,0.52677030,0.52800200,0.53064630,0.53158570,0.53427100,0.53658830,0.53970970,0.54328170,0.54806500,0.55284700,0.55467670,0.55548600,0.55726000,0.55764400,0.55427300,0.54715800,0.54169930,0.53905930,0.53404100,0.52665300,0.52055030,0.51463230,0.50933630,0.50582100,0.50946530,0.51299570,0.51375070,0.51445200,0.51715900,0.52138600,0.52435100,0.52723200,0.52954100,0.53078230,0.53349900,0.53454000,0.53702830,0.54040230,0.54357530,0.54450570,0.54566830,0.54141430,0.52892170,0.48610300,0.44874100,0.39456300,0.36166970,0.34268270,0.33560570,0.34049970,0.35008230,0.36205100,0.37421100,0.38682700,0.39763070,0.40777800,0.41561830,0.42305130,0.42455630,0.42404970,0.41866400,0.41118030,0.40080530,0.38868530,0.37846870,0.36826800,0.36175430,0.35432130,0.34904730,0.34599570,0.34327230,0.34213100,0.34262430,0.34238700,0.34433830,0.34599000,0.35195970,0.35713670,0.36282700,0.36773030,0.37191030,0.37778730,0.38342700,0.38569270,0.38876600,0.38796630,0.37995300,0.37017100,0.35512870,0.33957200,0.32487070,0.31410970,0.30961530,0.30713370,0.30025300,0.29228400,0.29058900,0.29847570,0.29918900,0.29689270,0.29456730,0.29546030,0.29921900,0.29967300,0.29816770,0.29911770,0.30151970,0.30176330
0.71214100,0.71293670,0.71293530,0.71392130,0.71457600,0.71516000,0.71601870,0.71677630,0.71794330,0.71796230,0.71911470,0.71954300,0.71962770,0.72001500,0.72026270,0.72010830,0.71909800,0.71789030,0.71561100,0.71406730,0.71157370,0.70865630,0.70572430,0.70331830,0.70215330,0.70107130,0.70186600,0.70401370,0.70682630,0.70977700,0.71239700,0.71396630,0.71573800,0.71694530,0.71752200,0.71863600,0.71997870,0.72102170,0.72145900,0.72127730,0.72101600,0.71961870,0.71738270,0.71393430,0.70898100,0.70338270,0.69924630,0.69499030,0.69053500,0.68337270,0.67250170,0.65527870,0.63301230,0.61084800,0.59365230,0.58334130,0.57961400,0.57934630,0.58002600,0.58177770,0.58558300,0.58930600,0.59420730,0.59935170,0.60355200,0.60761170,0.61098400,0.61275430,0.61439600,0.61626030,0.61746870,0.61940170,0.62120330,0.62331570,0.62615800,0.62929030,0.63308670,0.63742200,0.63813630,0.63774930,0.64005000,0.64110100,0.63664270,0.63106400,0.62514530,0.61823430,0.60949770,0.60059600,0.59524530,0.58902070,0.58403430,0.58269930,0.58660800,0.59129170,0.59293370,0.59489530,0.59825000,0.60186200,0.60533530,0.60982270,0.61453300,0.61664830,0.61801530,0.61904830,0.62205430,0.62406700,0.62739770,0.62925570,0.62822200,0.62527700,0.61300800,0.56979770,0.53548930,0.48036030,0.45212500,0.43370300,0.42698970,0.43157270,0.44058600,0.45356270,0.46504100,0.47743600,0.48757030,0.49863300,0.50494200,0.51226830,0.51485130,0.51303900,0.50873200,0.50021900,0.48958900,0.47821670,0.46824130,0.45928900,0.45241100,0.44652070,0.44267670,0.44084370,0.43703530,0.43724830,0.43799030,0.43986470,0.44278800,0.44316370,0.44905570,0.45286370,0.45739730,0.46269870,0.46753170,0.47147500,0.47698130,0.47869470,0.47880700,0.47691070,0.46903330,0.45819100,0.43963370,0.41951700,0.39941670,0.38672770,0.38269530,0.37781200,0.37047000,0.36128800,0.36015770,0.36917100,0.36845470,0.36862900,0.36920870,0.36977230,0.37494670,0.37680530,0.38009400,0.38056270,0.38219530,0.38324500
0.71362380,0.71409330,0.71466100,0.71561070,0.71613700,0.71753630,0.71773370,0.71881570,0.71882900,0.72022130,0.71986500,0.72036630,0.72134070,0.72072430,0.72138530,0.72089830,0.71953870,0.71839200,0.71634170,0.71389130,0.71152830,0.70877230,0.70573200,0.70311600,0.70105700,0.69948900,0.70005300,0.70260970,0.70571930,0.70841230,0.71030100,0.71194030,0.71309930,0.71383970,0.71496300,0.71578330,0.71624170,0.71629570,0.71750370,0.71746100,0.71673030,0.71541230,0.71210630,0.70833230,0.70402430,0.69819600,0.69370200,0.68915830,0.68331870,0.67708730,0.66544130,0.64720930,0.62457330,0.60262700,0.58568070,0.57532800,0.57076870,0.56946030,0.57057830,0.57251570,0.57622270,0.58050570,0.58593130,0.58962700,0.59410630,0.59844470,0.60199600,0.60338200,0.60450670,0.60622300,0.60862530,0.60837100,0.61016470,0.61210630,0.61473870,0.61854030,0.62174770,0.62446670,0.62589900,0.62467700,0.62678000,0.62704670,0.62314700,0.61804730,0.61257800,0.60679400,0.59906270,0.58869600,0.58195130,0.57216670,0.56873670,0.56933570,0.57375030,0.57700370,0.57702700,0.57862630,0.58173770,0.58570230,0.58948730,0.59489670,0.59800970,0.60118130,0.60246730,0.60412900,0.60627500,0.61014530,0.61059730,0.61140700,0.61079570,0.60784400,0.59600370,0.56019930,0.52314300,0.47443970,0.44024200,0.42003830,0.41360670,0.41801470,0.42589030,0.43635630,0.44782530,0.46017130,0.46937930,0.47969470,0.48746370,0.49238670,0.49472970,0.49415300,0.48922930,0.48308730,0.47413430,0.46443300,0.45480770,0.44708600,0.43924700,0.43344870,0.42901770,0.42800030,0.42371330,0.42121900,0.42256470,0.42511170,0.42712400,0.42853470,0.43302000,0.43659570,0.44195900,0.44691300,0.45428170,0.45846370,0.46305100,0.46549700,0.46689130,0.46699670,0.45768800,0.44642000,0.43083100,0.41186370,0.39284700,0.37898130,0.37287700,0.36757030,0.35937430,0.35026000,0.34878500,0.35513400,0.35779270,0.35530130,0.35633500,0.35587370,0.36114770,0.36394500,0.36669130,0.36814670,0.36949370,0.36888630
0.68972380,0.69064270,0.69111700,0.69218100,0.69298330,0.69353770,0.69465470,0.69567770,0.69610400,0.69692800,0.69775370,0.69764130,0.69825700,0.69869400,0.69802970,0.69750700,0.69697800,0.69547400,0.69369130,0.69150130,0.68876670,0.68591130,0.68320230,0.67994870,0.67809900,0.67734500,0.67757070,0.67927100,0.68221800,0.68496130,0.68737270,0.68902630,0.69061930,0.69128300,0.69124400,0.69241830,0.69341900,0.69449930,0.69450300,0.69406830,0.69292230,0.69168900,0.68875800,0.68453770,0.67896330,0.67343330,0.66771070,0.66351600,0.65840300,0.64976070,0.63760230,0.61813430,0.59347300,0.56917470,0.54986300,0.53723700,0.53157300,0.53091300,0.53085900,0.53217400,0.53502930,0.53934030,0.54335800,0.54906530,0.55240330,0.55625400,0.55999170,0.56194030,0.56343030,0.56593100,0.56654600,0.56786500,0.56975100,0.57151130,0.57423270,0.57799370,0.58093570,0.58476570,0.58674170,0.58526930,0.58610530,0.58736470,0.58356530,0.57832770,0.57259000,0.56844930,0.56243530,0.55492730,0.54952170,0.54470570,0.54118300,0.53885370,0.54067200,0.54374400,0.54534030,0.54706330,0.54924800,0.55293600,0.55554400,0.55994200,0.56374000,0.56592330,0.56692830,0.56850300,0.57085570,0.57333330,0.57469700,0.57695900,0.57657930,0.57305870,0.56152370,0.52598470,0.48987070,0.43669330,0.40479270,0.38519930,0.37853570,0.38252870,0.39001700,0.40056930,0.41172270,0.42235200,0.43378170,0.44343700,0.44957170,0.45560130,0.45934270,0.45849870,0.45380170,0.44799570,0.43842400,0.42906300,0.41915430,0.40837100,0.40199930,0.39729930,0.39286870,0.38795700,0.38536930,0.38479030,0.38305130,0.38422130,0.38492700,0.38517170,0.39104770,0.39381030,0.40013700,0.40709330,0.40967700,0.41565430,0.42150900,0.42324200,0.42782400,0.42559600,0.42058230,0.40887630,0.39436770,0.37933770,0.36282030,0.35330770,0.34898630,0.34415870,0.33955430,0.33301830,0.33169870,0.33600400,0.33522700,0.33518400,0.33473830,0.33437300,0.33760030,0.34203530,0.34230170,0.34403800,0.34516200,0.34346030
0.69381440,0.69453800,0.69500170,0.69624400,0.69707100,0.69702700,0.69879200,0.69885630,0.69990070,0.70000270,0.70086630,0.70154730,0.70146030,0.70225470,0.70180170,0.70141870,0.70034070,0.69876570,0.69699300,0.69460900,0.69235030,0.68963500,0.68679500,0.68391600,0.68168130,0.68034630,0.68076230,0.68303530,0.68578430,0.68862670,0.69081170,0.69212900,0.69375000,0.69443430,0.69499400,0.69582570,0.69700070,0.69787430,0.69785970,0.69749400,0.69717530,0.69561200,0.69266230,0.68877770,0.68361030,0.67756570,0.67337170,0.66847600,0.66309570,0.65518430,0.64294770,0.62432930,0.60030470,0.57631600,0.55809100,0.54710930,0.54200000,0.54114670,0.54133330,0.54324430,0.54676630,0.55095500,0.55548630,0.56045270,0.56450270,0.56839030,0.57190000,0.57348230,0.57550800,0.57673470,0.57878770,0.57979270,0.58185400,0.58367970,0.58602670,0.58890100,0.59267470,0.59598000,0.59820830,0.59737870,0.59882700,0.59873470,0.59512370,0.58970000,0.58471700,0.58102830,0.57483800,0.56703470,0.56063470,0.55505830,0.55084900,0.54950930,0.55289600,0.55555630,0.55650170,0.55836370,0.56040100,0.56432030,0.56646900,0.57053570,0.57502970,0.57638770,0.57743900,0.57955900,0.58202430,0.58425000,0.58591570,0.58745030,0.58753900,0.58436170,0.57223830,0.53003800,0.49170030,0.43584430,0.40762300,0.38971930,0.38443670,0.38814030,0.39802500,0.40995070,0.42168100,0.43275470,0.44457670,0.45461900,0.46123200,0.46907370,0.47032930,0.47051400,0.46574800,0.45710830,0.44919030,0.43897670,0.42831070,0.41985330,0.41389230,0.40737700,0.40346870,0.39971430,0.39778200,0.39643930,0.39683230,0.39650100,0.39817430,0.39852070,0.40374330,0.40851270,0.41353430,0.41824670,0.42289730,0.42765530,0.43169070,0.43556030,0.43625200,0.43683030,0.42858800,0.41843200,0.40572300,0.38697700,0.37198000,0.36167270,0.35676400,0.35413870,0.34688930,0.33919100,0.33709370,0.34398630,0.34592830,0.34411230,0.34307030,0.34370330,0.34706570,0.34931270,0.35096300,0.35319530,0.35338970,0.35522770
0.55046470,0.55117580,0.55200980,0.55294100,0.55338740,0.55408100,0.55495540,0.55595420,0.55607020,0.55684380,0.55766440,0.55751720,0.55761280,0.55751480,0.55812780,0.55692160,0.55740280,0.55717960,0.55623420,0.55484500,0.55266960,0.55188820,0.55028300,0.54940940,0.54891900,0.54837900,0.54862120,0.54837460,0.54896080,0.54986860,0.55064480,0.55075440,0.55107460,0.55112120,0.55079200,0.55090140,0.55100160,0.55081580,0.55094860,0.54991040,0.54950940,0.54797840,0.54668680,0.54420460,0.54188940,0.53860360,0.53565300,0.53344240,0.52957820,0.52387660,0.51519380,0.50050640,0.48376960,0.46829160,0.45538920,0.44644560,0.44075700,0.43711300,0.43591280,0.43622420,0.43905620,0.44255300,0.44608960,0.44966980,0.45244340,0.45490940,0.45758180,0.45910680,0.46005800,0.46083480,0.46151440,0.46244460,0.46341920,0.46461060,0.46558460,0.46646280,0.46795700,0.46961440,0.46983840,0.47118480,0.47160500,0.47039340,0.46880840,0.46687860,0.46595020,0.46469420,0.46241940,0.45932220,0.45572420,0.45211880,0.44899200,0.44800420,0.45026880,0.45084760,0.44986260,0.44951980,0.44920620,0.45074800,0.45146300,0.45174060,0.45246680,0.45423200,0.45405160,0.45544720,0.45723560,0.45727340,0.45877140,0.45847720,0.45622380,0.45377580,0.44487860,0.41605740,0.38651740,0.34474220,0.31079900,0.29237740,0.28789900,0.29113580,0.29867620,0.30845740,0.31892400,0.32828360,0.33778420,0.34617320,0.35274980,0.35840780,0.36229520,0.36426380,0.36187560,0.35797900,0.35191260,0.34659920,0.33982600,0.33284300,0.32715040,0.32240240,0.31785620,0.31461180,0.31060000,0.30828100,0.30707760,0.30471820,0.30380660,0.30439760,0.30605820,0.30738260,0.30928020,0.31079600,0.31331780,0.31727060,0.32051560,0.32374080,0.32750560,0.32916380,0.32807760,0.32339420,0.31532460,0.30768700,0.30226580,0.29809820,0.29430940,0.28962620,0.28593320,0.27962140,0.27820880,0.28207660,0.28163440,0.28210760,0.28001180,0.28276160,0.28484820,0.28781940,0.28818480,0.28763900,0.28580740,0.28308760
0.54336670,0.54372200,0.54421170,0.54491880,0.54515180,0.54551320,0.54604750,0.54661980,0.54696500,0.54760470,0.54798120,0.54764580,0.54801430,0.54759050,0.54731430,0.54625050,0.54640500,0.54645250,0.54522000,0.54416680,0.54285600,0.54113130,0.53988700,0.53871500,0.53801200,0.53697800,0.53715550,0.53690400,0.53786620,0.53842700,0.53934170,0.53943950,0.53955680,0.53987530,0.53936630,0.53950580,0.53958200,0.53916720,0.53939520,0.53876750,0.53793180,0.53702550,0.53553320,0.53364450,0.53119250,0.52809050,0.52551380,0.52290970,0.51989380,0.51566000,0.50906220,0.49798380,0.48382800,0.46933300,0.45603120,0.44643020,0.43959150,0.43547950,0.43394050,0.43389950,0.43583230,0.43814850,0.44099350,0.44377130,0.44557650,0.44797180,0.44973100,0.45079200,0.45125470,0.45221400,0.45217880,0.45235350,0.45304530,0.45387650,0.45485000,0.45595430,0.45677320,0.45839470,0.45898620,0.45932530,0.45860400,0.45586000,0.45218570,0.45219780,0.45352430,0.45264820,0.45103830,0.44639550,0.44328700,0.44003650,0.43733950,0.43739600,0.43880650,0.43946430,0.43905900,0.43899150,0.43894650,0.44004250,0.44169450,0.44287000,0.44383650,0.44582100,0.44612700,0.44668900,0.44828800,0.44908230,0.44978120,0.45090550,0.44968830,0.44715250,0.44054180,0.41606500,0.39149050,0.35752280,0.32734330,0.30926120,0.30169830,0.30245950,0.30787300,0.31531200,0.32520550,0.33266750,0.33993020,0.34784400,0.35326880,0.35857820,0.36034450,0.36016800,0.35555750,0.34930900,0.34189500,0.33309330,0.32522450,0.31664350,0.31110250,0.30500350,0.29994980,0.29692600,0.29305450,0.28990500,0.28599970,0.28433850,0.28268780,0.28346800,0.28691500,0.28941330,0.29170050,0.29516520,0.29712450,0.30244870,0.30572100,0.30971320,0.31448150,0.31671570,0.31639880,0.31159250,0.30234350,0.29343600,0.28738920,0.28242280,0.27964530,0.27717200,0.27359580,0.26695830,0.26454220,0.26650280,0.26518050,0.26671480,0.26771300,0.26844620,0.27219520,0.27501780,0.27565570,0.27465850,0.27280400,0.27131530
0.51347480,0.51572180,0.51805480,0.51983280,0.52163000,0.52326080,0.52499660,0.52679500,0.52839400,0.52995140,0.53132320,0.53232540,0.53335620,0.53419320,0.53520880,0.53512340,0.53578640,0.53581140,0.53581440,0.53538960,0.53437040,0.53302680,0.53189920,0.53166280,0.53088460,0.53096260,0.53106380,0.53145440,0.53341540,0.53494260,0.53651060,0.53750020,0.53847340,0.53950000,0.53942520,0.53997860,0.54029300,0.54094560,0.54183120,0.54134480,0.54127820,0.54048640,0.53940180,0.53669280,0.53398220,0.53049100,0.52739040,0.52459860,0.52080460,0.51589500,0.50791720,0.49493220,0.47813760,0.46090560,0.44575240,0.43471320,0.42773780,0.42420920,0.42290040,0.42376720,0.42701580,0.42924860,0.43321440,0.43684740,0.44007840,0.44330180,0.44555520,0.44704800,0.44833820,0.44940960,0.45018940,0.45114860,0.45223460,0.45351920,0.45457060,0.45648880,0.45815800,0.46009720,0.46079840,0.46116140,0.46055760,0.45690840,0.45252900,0.45114540,0.45205460,0.45194060,0.44910460,0.44503020,0.44158040,0.43723300,0.43382640,0.43235880,0.43526720,0.43756120,0.43789020,0.43771960,0.43853060,0.43966160,0.44186680,0.44376800,0.44500220,0.44703400,0.44767720,0.44820420,0.45031440,0.45089480,0.45218200,0.45362360,0.45304720,0.44914800,0.43936460,0.41093500,0.38295680,0.34166020,0.31008920,0.29123280,0.28327260,0.28515840,0.29160960,0.30005600,0.30974440,0.31858940,0.32622580,0.33457760,0.34085260,0.34634480,0.34868720,0.34858420,0.34426780,0.33826940,0.32895420,0.32041040,0.31128520,0.30303980,0.29714800,0.29188400,0.28703960,0.28225640,0.27788980,0.27444600,0.27096320,0.26729740,0.26579700,0.26538380,0.26862940,0.27169220,0.27390520,0.27722980,0.28098140,0.28490620,0.29019060,0.29423500,0.29835460,0.30072320,0.30027880,0.29392980,0.28494660,0.27513960,0.26758320,0.26211160,0.25951300,0.25623200,0.25078400,0.24397780,0.24087080,0.24476040,0.24555840,0.24523320,0.24512700,0.24602760,0.25126380,0.25303660,0.25454980,0.25306560,0.25084560,0.24954580
0.56641580,0.56745360,0.56892990,0.57021710,0.57158070,0.57205300,0.57308810,0.57434330,0.57505660,0.57603600,0.57669670,0.57707640,0.57779490,0.57785570,0.57888490,0.57843570,0.57836210,0.57814090,0.57731960,0.57647090,0.57562260,0.57438390,0.57342100,0.57318710,0.57264870,0.57241100,0.57238100,0.57241770,0.57369830,0.57427160,0.57562130,0.57606340,0.57642790,0.57701930,0.57668360,0.57698490,0.57711110,0.57755890,0.57765630,0.57741830,0.57676290,0.57620240,0.57481840,0.57257000,0.57017310,0.56780170,0.56509960,0.56292270,0.55965710,0.55525870,0.54779460,0.53612810,0.52132190,0.50759260,0.49536200,0.48755940,0.48209070,0.47945340,0.47888340,0.47948240,0.48259770,0.48528410,0.48875160,0.49179140,0.49499890,0.49805560,0.49939000,0.50107430,0.50177630,0.50320600,0.50357570,0.50436510,0.50521330,0.50626410,0.50728790,0.50872630,0.51004740,0.51126590,0.51231510,0.51253260,0.51340770,0.51200230,0.51047240,0.50846440,0.50666570,0.50442690,0.50181040,0.49905570,0.49559790,0.49174110,0.48822210,0.48764340,0.48926700,0.49047030,0.49034310,0.49048900,0.49071870,0.49096260,0.49300740,0.49273630,0.49317310,0.49531540,0.49546510,0.49684870,0.49797590,0.49879940,0.50016570,0.50053840,0.50019300,0.49737100,0.48767110,0.46103170,0.43113800,0.39276800,0.36216360,0.34554670,0.34247840,0.34642990,0.35425090,0.36329490,0.37192190,0.38180600,0.38986740,0.39730210,0.40388790,0.40889330,0.41067470,0.41054740,0.40805100,0.40303490,0.39617040,0.38924410,0.38250360,0.37632770,0.37055940,0.36535540,0.36124060,0.35700310,0.35475070,0.35253890,0.35071100,0.34998890,0.34860640,0.34867160,0.35153670,0.35252740,0.35343570,0.35589500,0.35817640,0.36104490,0.36433210,0.36680410,0.37048170,0.37169660,0.36870310,0.36302740,0.35371100,0.34412790,0.33695570,0.33225030,0.32748640,0.32299390,0.31602560,0.31111310,0.31078610,0.31450130,0.31665900,0.31533630,0.31265610,0.31481670,0.32016970,0.32212770,0.32225960,0.32334470,0.32272370,0.32028140
0.53395200,0.53496070,0.53609690,0.53673260,0.53741530,0.53760140,0.53830230,0.53886570,0.53927370,0.54000940,0.54049660,0.54061830,0.54038550,0.54037830,0.54086160,0.54008240,0.54079210,0.54035350,0.54006490,0.53899560,0.53853660,0.53781080,0.53643160,0.53641090,0.53584850,0.53531690,0.53506640,0.53516630,0.53572400,0.53619240,0.53693670,0.53716100,0.53722190,0.53759170,0.53757100,0.53708300,0.53710970,0.53741170,0.53758040,0.53673370,0.53668560,0.53616830,0.53521760,0.53390780,0.53269090,0.53069540,0.52919370,0.52802660,0.52558370,0.52289910,0.51901240,0.51194080,0.50307280,0.49336420,0.48486010,0.47886920,0.47504460,0.47292480,0.47173250,0.47192930,0.47378530,0.47460790,0.47666090,0.47853170,0.48037880,0.48182680,0.48287890,0.48351710,0.48372770,0.48400230,0.48405660,0.48476420,0.48503010,0.48592340,0.48642980,0.48707720,0.48822580,0.48962770,0.49005170,0.49083630,0.49134380,0.49063420,0.48989120,0.48854030,0.48730550,0.48617100,0.48456940,0.48168040,0.47877090,0.47592610,0.47369920,0.47281060,0.47438390,0.47533820,0.47477710,0.47465690,0.47456790,0.47546120,0.47670500,0.47713200,0.47714920,0.47864650,0.47884220,0.47924410,0.48024400,0.48079850,0.48128250,0.48220660,0.48157470,0.48104270,0.47634380,0.45487010,0.43576290,0.41097160,0.38706910,0.37413950,0.36940690,0.37197230,0.37629930,0.38327560,0.38979720,0.39716750,0.40346510,0.40859240,0.41325250,0.41615480,0.41828400,0.41813420,0.41598700,0.41054940,0.40537250,0.39879000,0.39251480,0.38769660,0.38294520,0.37849660,0.37619370,0.37256770,0.37093660,0.36996470,0.36935540,0.36999990,0.36995810,0.37130660,0.37137990,0.37344150,0.37460730,0.37550520,0.37728470,0.37953850,0.38213670,0.38478630,0.38633530,0.38709750,0.38462840,0.37894580,0.37058010,0.36271380,0.35608430,0.35079580,0.34686750,0.34345820,0.33981290,0.33298410,0.33203070,0.33494780,0.33675630,0.33626220,0.33490130,0.33682650,0.34004890,0.34132480,0.34345660,0.34374600,0.34287430,0.34126250
0.60517190,0.60600950,0.60696730,0.60758350,0.60882230,0.60951350,0.61042600,0.61121080,0.61165880,0.61251670,0.61332670,0.61385270,0.61459130,0.61464350,0.61523150,0.61496550,0.61561050,0.61484800,0.61476470,0.61401900,0.61312830,0.61205120,0.61028080,0.60980880,0.60921000,0.60913000,0.60904650,0.60959030,0.61173250,0.61289930,0.61452200,0.61504980,0.61595050,0.61652250,0.61688500,0.61701570,0.61712130,0.61764620,0.61846670,0.61773330,0.61729020,0.61694350,0.61571580,0.61376900,0.61204150,0.60909480,0.60631200,0.60453000,0.60107750,0.59689670,0.58965370,0.57823700,0.56405730,0.54978600,0.53680000,0.52712150,0.52192580,0.51939670,0.51823050,0.51853780,0.52063050,0.52277500,0.52594830,0.52945120,0.53217300,0.53422050,0.53640700,0.53787100,0.53928770,0.53990330,0.54060250,0.54105370,0.54234480,0.54308330,0.54441720,0.54613250,0.54745180,0.54891250,0.55007300,0.55151680,0.55251720,0.55123450,0.55000930,0.54841720,0.54659150,0.54414000,0.54053150,0.53585050,0.53236420,0.52844830,0.52478920,0.52154450,0.52304680,0.52515030,0.52547000,0.52590200,0.52751600,0.52995920,0.53163480,0.53319200,0.53495150,0.53640600,0.53796000,0.53887400,0.54065450,0.54107780,0.54260350,0.54316680,0.54285270,0.53920700,0.53111530,0.50180550,0.47187650,0.43380770,0.39745370,0.37621730,0.36490620,0.36416700,0.36986500,0.37840200,0.38828850,0.39922400,0.40848880,0.41894630,0.42631600,0.43282700,0.43789950,0.43921650,0.43713900,0.43342950,0.42718800,0.41984220,0.41258970,0.40595550,0.40190100,0.39764620,0.39360450,0.39113200,0.38820830,0.38729920,0.38719800,0.38744550,0.38802230,0.38835700,0.39218920,0.39525900,0.39816150,0.40118320,0.40490450,0.40976730,0.41367500,0.41684350,0.42004550,0.42120970,0.41910350,0.41231050,0.40115980,0.38836300,0.37572070,0.36751000,0.36119150,0.35537050,0.34656350,0.33881730,0.33459000,0.34337850,0.34646150,0.34553070,0.34168080,0.34159050,0.34597580,0.34940800,0.34848680,0.34592770,0.34652630,0.34266430
0.56032820,0.56084120,0.56152350,0.56223500,0.56265850,0.56306580,0.56397750,0.56446630,0.56460250,0.56510180,0.56586330,0.56620430,0.56580950,0.56595870,0.56647370,0.56547420,0.56582480,0.56526120,0.56462320,0.56380200,0.56292230,0.56231050,0.56067320,0.56028500,0.55996870,0.55952470,0.55979330,0.55983550,0.56098450,0.56158670,0.56227570,0.56246850,0.56255680,0.56302670,0.56299720,0.56293680,0.56318820,0.56345500,0.56342680,0.56282050,0.56228650,0.56142080,0.56032370,0.55866180,0.55704530,0.55484150,0.55274380,0.55128950,0.54860050,0.54493100,0.53893050,0.52934380,0.51727580,0.50525550,0.49474100,0.48805800,0.48366220,0.48121300,0.47984880,0.47970370,0.48205080,0.48417880,0.48664850,0.48949880,0.49188770,0.49355120,0.49527400,0.49651980,0.49734330,0.49837870,0.49874700,0.49887350,0.49924250,0.50075150,0.50116720,0.50272350,0.50407220,0.50532580,0.50606420,0.50700480,0.50807020,0.50735500,0.50669630,0.50569520,0.50429320,0.50331480,0.50155430,0.49871100,0.49559520,0.49286130,0.49066420,0.48965150,0.49109470,0.49185080,0.49142520,0.49158000,0.49157970,0.49189900,0.49367670,0.49408580,0.49442970,0.49668750,0.49743670,0.49761670,0.49900600,0.49944750,0.50058430,0.50097680,0.49913080,0.49662930,0.48945800,0.46487930,0.43843670,0.40283050,0.37300080,0.35598670,0.34917130,0.35068470,0.35784580,0.36584450,0.37500400,0.38402180,0.39234130,0.39988300,0.40568330,0.41226170,0.41590700,0.41631400,0.41430150,0.40948480,0.40466770,0.39773600,0.39177220,0.38590100,0.38186580,0.37694300,0.37303030,0.37097250,0.36781300,0.36691830,0.36685680,0.36643370,0.36666080,0.36743900,0.36918830,0.37083550,0.37240430,0.37422530,0.37774250,0.38052780,0.38371370,0.38653080,0.38901430,0.39053230,0.39007750,0.38386820,0.37479570,0.36746670,0.36030770,0.35556220,0.35252120,0.34876920,0.34279470,0.33732380,0.33603720,0.33998580,0.34017980,0.33988420,0.33689620,0.33886150,0.34400150,0.34558330,0.34542200,0.34489500,0.34273120,0.34206800
0.59745320,0.59858140,0.59987160,0.60074130,0.60138140,0.60198440,0.60240560,0.60327080,0.60365100,0.60466260,0.60493730,0.60547310,0.60562060,0.60573930,0.60647720,0.60546640,0.60654860,0.60595660,0.60552520,0.60438540,0.60388320,0.60254160,0.60084410,0.60045090,0.59957420,0.59914890,0.59965530,0.59995470,0.60184700,0.60356830,0.60476920,0.60547440,0.60616180,0.60687060,0.60719410,0.60741320,0.60800260,0.60792840,0.60854000,0.60816490,0.60806280,0.60725160,0.60583490,0.60461780,0.60288170,0.59909090,0.59698280,0.59552290,0.59215430,0.58796080,0.58170580,0.57134980,0.55900470,0.54560520,0.53360220,0.52541930,0.52096660,0.51886910,0.51809540,0.51854530,0.52079970,0.52319770,0.52625090,0.52896040,0.53159190,0.53392900,0.53606930,0.53728820,0.53843540,0.53937970,0.54026460,0.54053410,0.54115530,0.54257890,0.54305230,0.54471040,0.54599500,0.54762830,0.54866560,0.54910920,0.54994860,0.54905500,0.54724510,0.54485570,0.54305600,0.54034390,0.53672820,0.53096390,0.52685940,0.52111770,0.51747840,0.51593910,0.51823870,0.52010380,0.52039210,0.52125290,0.52255210,0.52443990,0.52794210,0.53007770,0.53142060,0.53356840,0.53444120,0.53540800,0.53726980,0.53777240,0.53908330,0.54090370,0.54090120,0.53644420,0.52801810,0.50184620,0.47618790,0.43875020,0.40496490,0.38515690,0.37706610,0.37756690,0.38198990,0.39050180,0.40063030,0.40930090,0.41877880,0.42719270,0.43289620,0.43980990,0.44370530,0.44526520,0.44310680,0.43865300,0.43368690,0.42640990,0.41915180,0.41445530,0.40940020,0.40484190,0.40158410,0.39897420,0.39617820,0.39377030,0.39370910,0.39323840,0.39227400,0.39243470,0.39569300,0.39792890,0.40076760,0.40393910,0.40824130,0.41254960,0.41647520,0.42036720,0.42250310,0.42496680,0.42287640,0.41624440,0.40650060,0.39288460,0.37994510,0.36919920,0.36314000,0.35510740,0.34666440,0.33673780,0.33305300,0.34158980,0.34456080,0.34351680,0.34126360,0.34127810,0.34630700,0.34918000,0.34959190,0.34993620,0.34854400,0.34660560
0.55385370,0.55442470,0.55528270,0.55533800,0.55503030,0.55573870,0.55591730,0.55603270,0.55629300,0.55706670,0.55747030,0.55720400,0.55744030,0.55691730,0.55691170,0.55659500,0.55650070,0.55611030,0.55580800,0.55526470,0.55459500,0.55340800,0.55230700,0.55217570,0.55119430,0.55114130,0.55071930,0.54991230,0.55159800,0.55163770,0.55314700,0.55328670,0.55332930,0.55368270,0.55388670,0.55380070,0.55359170,0.55345900,0.55397730,0.55332630,0.55294500,0.55177800,0.55176700,0.55008870,0.54919800,0.54683070,0.54505970,0.54382270,0.54081970,0.53852700,0.53368800,0.52639670,0.51671630,0.50737230,0.49877670,0.49331500,0.48977630,0.48898930,0.48884770,0.48926030,0.49139800,0.49287470,0.49508470,0.49654370,0.49894770,0.50058600,0.50133600,0.50236530,0.50275430,0.50319570,0.50322570,0.50333030,0.50463600,0.50459330,0.50502000,0.50639830,0.50602930,0.50763130,0.50765600,0.50850100,0.50790370,0.50659700,0.50571470,0.50343930,0.50238500,0.50084970,0.49948600,0.49735230,0.49469070,0.49145230,0.48807470,0.48665900,0.48840500,0.48844300,0.48869000,0.48837370,0.48881800,0.48942430,0.49195900,0.49261030,0.49288030,0.49514200,0.49510530,0.49542030,0.49617100,0.49691770,0.49715030,0.49743500,0.49807170,0.49532370,0.48859000,0.46965170,0.44519530,0.41739870,0.38823770,0.37420300,0.36933470,0.37075070,0.37657700,0.38436500,0.39304900,0.40143070,0.40736300,0.41413670,0.42031470,0.42551500,0.42818700,0.42925900,0.43026470,0.42549170,0.42246700,0.41768730,0.41258230,0.40752230,0.40446600,0.40118870,0.39835070,0.39558800,0.39339570,0.39146200,0.39103070,0.38967830,0.38981000,0.39018130,0.39191730,0.39438200,0.39597970,0.39904700,0.40140800,0.40226500,0.40683770,0.40895000,0.41089900,0.41118000,0.41084170,0.40543400,0.39702830,0.38884870,0.38047730,0.37416930,0.36905070,0.36368630,0.35667700,0.34814130,0.34529870,0.35152100,0.35341070,0.35197170,0.34931930,0.34947900,0.35106230,0.35337970,0.35483000,0.35229600,0.35257900,0.35000430
0.53645280,0.53781360,0.53918920,0.53983080,0.54070840,0.54131320,0.54179800,0.54226380,0.54303860,0.54345600,0.54412100,0.54422900,0.54386020,0.54376260,0.54439140,0.54344740,0.54398320,0.54321200,0.54250480,0.54137060,0.54015660,0.53908960,0.53759660,0.53721620,0.53688460,0.53605300,0.53624700,0.53633460,0.53708040,0.53731060,0.53813340,0.53824900,0.53850560,0.53885880,0.53838540,0.53793440,0.53819560,0.53804660,0.53797380,0.53688100,0.53666680,0.53532000,0.53432440,0.53211540,0.53016700,0.52749260,0.52582220,0.52358500,0.52014540,0.51634000,0.50891620,0.49782840,0.48439840,0.47211880,0.46196420,0.45522100,0.45041820,0.44791060,0.44640580,0.44643760,0.44874980,0.45107580,0.45359060,0.45634840,0.45898380,0.46112520,0.46297600,0.46398020,0.46465400,0.46588940,0.46612020,0.46621400,0.46711200,0.46805880,0.46880340,0.47008700,0.47134280,0.47191800,0.47267580,0.47355180,0.47384220,0.47334300,0.47213200,0.47046940,0.46882280,0.46751980,0.46511960,0.46217340,0.46022440,0.45742140,0.45409060,0.45302900,0.45419620,0.45408880,0.45360820,0.45330120,0.45271920,0.45400760,0.45451480,0.45546040,0.45552420,0.45690680,0.45705000,0.45815640,0.45921380,0.45947700,0.45997020,0.46018720,0.45899280,0.45610760,0.44857480,0.42374260,0.39553600,0.35920620,0.32842560,0.31175500,0.30665260,0.30997440,0.31679220,0.32516920,0.33443660,0.34335960,0.35085340,0.35945980,0.36501560,0.37141400,0.37503180,0.37636800,0.37521620,0.37206120,0.36610480,0.36102080,0.35581240,0.34989680,0.34582700,0.34100420,0.33778420,0.33501620,0.33195600,0.32914220,0.32873420,0.32802540,0.32699880,0.32733480,0.32878760,0.32961620,0.33043100,0.33208880,0.33372120,0.33684480,0.34006360,0.34178800,0.34559400,0.34661100,0.34422860,0.34045540,0.33188580,0.32522300,0.31932880,0.31376340,0.31158400,0.30799660,0.30279400,0.29807200,0.29755220,0.30012880,0.30063560,0.30136280,0.29851660,0.29940640,0.30352780,0.30410600,0.30528080,0.30571720,0.30367260,0.30117240
0.60522660,0.60727400,0.60931170,0.61091730,0.61245470,0.61383870,0.61509630,0.61674070,0.61784500,0.61890600,0.61958230,0.62059570,0.62111530,0.62170070,0.62268700,0.62276900,0.62258870,0.62196370,0.62137530,0.61959670,0.61755930,0.61590370,0.61397170,0.61239270,0.61116970,0.61083070,0.61048930,0.61108430,0.61298900,0.61492770,0.61668600,0.61742900,0.61812870,0.61870230,0.61947600,0.61963130,0.61976130,0.62040900,0.62065830,0.62054070,0.61996230,0.61927170,0.61686900,0.61405170,0.61044370,0.60569730,0.60182930,0.59857230,0.59388430,0.58784530,0.57888300,0.56278430,0.54188500,0.52018470,0.50099130,0.48716700,0.47811400,0.47277300,0.47057830,0.47084370,0.47300600,0.47628830,0.47945130,0.48304630,0.48667100,0.49025600,0.49277300,0.49416830,0.49560770,0.49623500,0.49639570,0.49710300,0.49804500,0.49901970,0.50018470,0.50235630,0.50480270,0.50658230,0.50803170,0.50930530,0.50993400,0.50892530,0.50634170,0.50347800,0.50143970,0.49866730,0.49381970,0.48852000,0.48312070,0.47682100,0.47261670,0.47110200,0.47412430,0.47733270,0.47639870,0.47747400,0.47906800,0.48119730,0.48358770,0.48488000,0.48606100,0.48774200,0.48908970,0.49138130,0.49312830,0.49559830,0.49667200,0.49755070,0.49659270,0.49288770,0.48210100,0.45901830,0.42621700,0.38365900,0.34490700,0.32249030,0.31491830,0.31719930,0.32403130,0.33378100,0.34408630,0.35324270,0.36199200,0.37015170,0.37692430,0.38249070,0.38360300,0.38111130,0.37412770,0.36447670,0.35335630,0.34181730,0.33181800,0.32321830,0.31485200,0.30845230,0.30171600,0.29665470,0.29339200,0.29034600,0.28704870,0.28576370,0.28622230,0.28412430,0.28680000,0.28890800,0.29209700,0.29418570,0.29775470,0.30114870,0.30629230,0.31118670,0.31518770,0.31678600,0.31514600,0.30847930,0.29717630,0.28654830,0.27766500,0.27019970,0.26550930,0.26104930,0.25303570,0.24772200,0.24526970,0.25258430,0.25296500,0.25168530,0.24907030,0.25106530,0.25773000,0.26059430,0.26237170,0.26220670,0.26129230,0.25950970
0.54768570,0.54817870,0.54888370,0.54983890,0.55016870,0.55110010,0.55173660,0.55259190,0.55296310,0.55325730,0.55370540,0.55425270,0.55445900,0.55482330,0.55494430,0.55499240,0.55471530,0.55452170,0.55392200,0.55294500,0.55211460,0.55096310,0.54994560,0.54901930,0.54829040,0.54794790,0.54809930,0.54843710,0.54934990,0.55069840,0.55106570,0.55152830,0.55209270,0.55188530,0.55206140,0.55211260,0.55198570,0.55212970,0.55232600,0.55189070,0.55181510,0.55096240,0.54986930,0.54827090,0.54678370,0.54442240,0.54235200,0.54048110,0.53798000,0.53507640,0.53031970,0.52293570,0.51274810,0.50127900,0.49241970,0.48624570,0.48261940,0.48080700,0.48007670,0.48104570,0.48202170,0.48395010,0.48603870,0.48799710,0.48968410,0.49178590,0.49302860,0.49400200,0.49457810,0.49478540,0.49480930,0.49542660,0.49612890,0.49696370,0.49734410,0.49858310,0.49960400,0.50097340,0.50144770,0.50174360,0.50167730,0.50118030,0.49893630,0.49698470,0.49499900,0.49297500,0.49019010,0.48711540,0.48355190,0.48059640,0.47744610,0.47536430,0.47734330,0.47922730,0.47958760,0.47929110,0.48025430,0.48195730,0.48349070,0.48427400,0.48520440,0.48545860,0.48626030,0.48738000,0.48890740,0.48958110,0.49058630,0.49139510,0.49128710,0.48811390,0.48112360,0.45809510,0.43729700,0.39796670,0.38255330,0.36790030,0.35959770,0.36178360,0.36675270,0.37407310,0.38170910,0.39016510,0.39722690,0.40325700,0.40842860,0.41374640,0.41511560,0.41592940,0.41274270,0.40888590,0.40306490,0.39570570,0.38912930,0.38306360,0.37906930,0.37658170,0.37371960,0.37074490,0.36934960,0.36917430,0.36896130,0.36899060,0.36894830,0.36802690,0.37242400,0.37451640,0.37477940,0.37789690,0.37979990,0.38239890,0.38492440,0.38589860,0.38968300,0.38794740,0.38602530,0.37695060,0.36605560,0.35546640,0.34501910,0.33838610,0.33344240,0.32878340,0.32099470,0.31442060,0.31275470,0.31963790,0.32108330,0.31981360,0.31868390,0.31997400,0.32365430,0.32623690,0.32794200,0.32604690,0.32544210,0.32527460
0.53684640,0.53841430,0.54007680,0.54181450,0.54325230,0.54457450,0.54609830,0.54722910,0.54839220,0.54978350,0.55055490,0.55115260,0.55242690,0.55316380,0.55435780,0.55465590,0.55464960,0.55478240,0.55455270,0.55413820,0.55324020,0.55253040,0.55207560,0.55152540,0.55124510,0.55133810,0.55150090,0.55264910,0.55405790,0.55558250,0.55675240,0.55745410,0.55822850,0.55910840,0.55941890,0.55945890,0.56017950,0.56048740,0.56084700,0.56097940,0.56081010,0.56023480,0.55927840,0.55765930,0.55574890,0.55337940,0.55115910,0.54908090,0.54663140,0.54282940,0.53711210,0.52847930,0.51607940,0.50362340,0.49338300,0.48667070,0.48237890,0.48131700,0.48107450,0.48203240,0.48446510,0.48657490,0.48937620,0.49116440,0.49357660,0.49661560,0.49839940,0.49979590,0.50066290,0.50136360,0.50175390,0.50270270,0.50369850,0.50441350,0.50545120,0.50682760,0.50796460,0.50970480,0.50977730,0.51022200,0.51017270,0.50943650,0.50665360,0.50436510,0.50175610,0.49916710,0.49601050,0.49187510,0.48809100,0.48430610,0.48028280,0.47831560,0.48118920,0.48372760,0.48408640,0.48369790,0.48565520,0.48773510,0.48974060,0.49072230,0.49204190,0.49319060,0.49392680,0.49505120,0.49616910,0.49742620,0.49836830,0.49929710,0.49892730,0.49523660,0.48689790,0.45986780,0.43230640,0.38572010,0.36783460,0.35243400,0.34508420,0.34772430,0.35391930,0.36303390,0.37232140,0.38143430,0.38948270,0.39682640,0.40298320,0.40869410,0.41122750,0.41193260,0.40869790,0.40442190,0.39610910,0.38961550,0.38260360,0.37680900,0.37345310,0.37002050,0.36708040,0.36404600,0.36262270,0.36251210,0.36052450,0.36059160,0.36046800,0.35757850,0.36242070,0.36325010,0.36476850,0.36686480,0.36896970,0.37121470,0.37467070,0.37647560,0.37962610,0.37765320,0.37488410,0.36556810,0.35261590,0.34034960,0.32979470,0.32250490,0.31691440,0.31054330,0.30323570,0.29669780,0.29660620,0.30277960,0.30527230,0.30427660,0.30127210,0.30281510,0.30809690,0.30938210,0.31088730,0.31173200,0.31087530,0.30860260
0.55872580,0.56008700,0.56201150,0.56334570,0.56450670,0.56559050,0.56687520,0.56800220,0.56943880,0.57047670,0.57154550,0.57232700,0.57291980,0.57345220,0.57451680,0.57406030,0.57460770,0.57423830,0.57377620,0.57319230,0.57182650,0.57048680,0.56872350,0.56803720,0.56758580,0.56744800,0.56767600,0.56826800,0.57036880,0.57160420,0.57363880,0.57461880,0.57530420,0.57628120,0.57669370,0.57706620,0.57759480,0.57763680,0.57834930,0.57778350,0.57752450,0.57664230,0.57491330,0.57234330,0.56988300,0.56648700,0.56354930,0.56102300,0.55694380,0.55135550,0.54284920,0.52925470,0.51232750,0.49608880,0.48224820,0.47309670,0.46736580,0.46472120,0.46374520,0.46461430,0.46724030,0.46957620,0.47299070,0.47669980,0.47943930,0.48216750,0.48438170,0.48656000,0.48778830,0.48873550,0.48956500,0.49020280,0.49101500,0.49315700,0.49399620,0.49579980,0.49790400,0.49977850,0.50077930,0.50247080,0.50302250,0.50180270,0.49998150,0.49682180,0.49419270,0.49199680,0.48890200,0.48410430,0.48039120,0.47640130,0.47155980,0.46922680,0.47158370,0.47311020,0.47400320,0.47400820,0.47461880,0.47732580,0.47963330,0.48055780,0.48163580,0.48435630,0.48480000,0.48631380,0.48809750,0.48961930,0.49100750,0.49164330,0.49061430,0.48738720,0.47632580,0.44399520,0.40980530,0.35784150,0.33266770,0.31119450,0.30028870,0.30270850,0.30753280,0.31580250,0.32689200,0.33679680,0.34563720,0.35479350,0.36302350,0.37153850,0.37562830,0.37668720,0.37445420,0.37057050,0.36320330,0.35533530,0.34926080,0.34180630,0.33687270,0.33312380,0.33010720,0.32796670,0.32473130,0.32462330,0.32479380,0.32359730,0.32405330,0.32245370,0.32693830,0.32981780,0.33192380,0.33494520,0.33906680,0.34283180,0.34744180,0.35053550,0.35362700,0.35491130,0.34988980,0.34123420,0.32917520,0.31515870,0.30386180,0.29693070,0.29101030,0.28584530,0.27893400,0.27216950,0.26908850,0.27646030,0.27875150,0.27637980,0.27421870,0.27483330,0.27873280,0.28066220,0.28087520,0.27979620,0.27890380,0.27709220
0.72128840,0.72403460,0.72649540,0.72905120,0.73125040,0.73366900,0.73619280,0.73770800,0.73993040,0.74127520,0.74317780,0.74417660,0.74548440,0.74641860,0.74758400,0.74794020,0.74826120,0.74749800,0.74658200,0.74519940,0.74244620,0.74052760,0.73877220,0.73743660,0.73655600,0.73625280,0.73632380,0.73781400,0.74035720,0.74266280,0.74440440,0.74607620,0.74725320,0.74792900,0.74853700,0.74899200,0.74981000,0.75091620,0.75053860,0.75097680,0.74980800,0.74844880,0.74576120,0.74238340,0.73761780,0.73245200,0.72832800,0.72342620,0.71791140,0.70876260,0.69523600,0.67436420,0.64868440,0.62541980,0.60771060,0.59676460,0.58989120,0.58587100,0.58467200,0.58574520,0.58980440,0.59451160,0.59909860,0.60428900,0.60952280,0.61293000,0.61646920,0.61933880,0.62157600,0.62310800,0.62470060,0.62585120,0.62701080,0.62823000,0.63063820,0.63294440,0.63548960,0.63791220,0.63873760,0.63975840,0.64043140,0.63929860,0.63635940,0.63197800,0.62852580,0.62375900,0.61827840,0.61111720,0.60485820,0.59759160,0.59235860,0.59082200,0.59469420,0.59736600,0.59768980,0.59786160,0.59866040,0.60227500,0.60456580,0.60638060,0.60646040,0.60774320,0.60980020,0.61141240,0.61456860,0.61657420,0.61737680,0.61691620,0.61423420,0.60945020,0.59562820,0.55869720,0.51420260,0.45706740,0.40983320,0.38822500,0.38207940,0.38808300,0.39925640,0.41298600,0.42535020,0.43811800,0.44979800,0.46036360,0.47114060,0.47849040,0.48261160,0.48399840,0.47883700,0.47338160,0.46364980,0.45295000,0.44476040,0.43766020,0.43064180,0.42487260,0.41836240,0.41481460,0.41076520,0.40617140,0.40469760,0.40280800,0.40247620,0.40028540,0.40259000,0.40488780,0.40723400,0.41049820,0.41362340,0.41950540,0.42481960,0.42664880,0.43005940,0.43170660,0.42802120,0.41820660,0.40370700,0.39090460,0.37966580,0.37159600,0.36492880,0.35791740,0.34730340,0.33810560,0.33939240,0.34547300,0.34763540,0.34630380,0.34202300,0.34459640,0.35005200,0.35322740,0.35488760,0.35351480,0.35386480,0.35073080
0.62303560,0.62408430,0.62524730,0.62607120,0.62677400,0.62743520,0.62833400,0.62979450,0.62973850,0.63084520,0.63159850,0.63196050,0.63215180,0.63246920,0.63266180,0.63243970,0.63233970,0.63195620,0.63079400,0.62976750,0.62794450,0.62584930,0.62382270,0.62309470,0.62156470,0.62041930,0.62077380,0.62123100,0.62388220,0.62537450,0.62711330,0.62812670,0.62835020,0.62904030,0.62933320,0.63005120,0.63022300,0.63022300,0.63074500,0.62998620,0.62942130,0.62827220,0.62674050,0.62358980,0.62049670,0.61620350,0.61260150,0.60938900,0.60440570,0.59781150,0.58774050,0.57162300,0.55129100,0.53178920,0.51446000,0.50180200,0.49473000,0.49075700,0.48969800,0.49023470,0.49360120,0.49685970,0.50110220,0.50510300,0.50881870,0.51213530,0.51493850,0.51705620,0.51861050,0.51988120,0.52066330,0.52143400,0.52285980,0.52479930,0.52612120,0.52856650,0.53076550,0.53327850,0.53554900,0.53727600,0.53859480,0.53820770,0.53737480,0.53446730,0.53331500,0.52996900,0.52588100,0.51980600,0.51546880,0.50985820,0.50550070,0.50243730,0.50441850,0.50649500,0.50691920,0.50717480,0.50826880,0.51154030,0.51446280,0.51649550,0.51829800,0.52152900,0.52214130,0.52365970,0.52668600,0.52655600,0.52896130,0.52951920,0.53010270,0.52409080,0.51149330,0.47614030,0.43976650,0.39158550,0.34991450,0.32485250,0.31294270,0.31203580,0.31805330,0.32746350,0.33918300,0.35061320,0.36183150,0.37302370,0.38202830,0.39176700,0.39675530,0.39826300,0.39588570,0.39083180,0.38257130,0.37335950,0.36627150,0.35889400,0.35384600,0.34846900,0.34436220,0.34133800,0.33939630,0.33831330,0.33720950,0.33803400,0.33833100,0.33869270,0.34219070,0.34672030,0.35030750,0.35365250,0.35964100,0.36521630,0.37101080,0.37579830,0.37983980,0.38165820,0.38109900,0.37517950,0.36245050,0.34874850,0.33523780,0.32583420,0.31833270,0.31280300,0.30695470,0.29655870,0.29126930,0.30008950,0.30231450,0.30153230,0.29824900,0.29688550,0.30225120,0.30429700,0.30337830,0.30432400,0.30097630,0.29835520
0.57615410,0.57794380,0.58026940,0.58176620,0.58303880,0.58504560,0.58604120,0.58744580,0.58908600,0.59071520,0.59232080,0.59313060,0.59381060,0.59432100,0.59563180,0.59617400,0.59690600,0.59718920,0.59746380,0.59771180,0.59747060,0.59693380,0.59610920,0.59680780,0.59667360,0.59675540,0.59776120,0.59760040,0.59987820,0.60067440,0.60229840,0.60324360,0.60402420,0.60485360,0.60521580,0.60613740,0.60612460,0.60691440,0.60700920,0.60684040,0.60784740,0.60658600,0.60630320,0.60543360,0.60461760,0.60274420,0.60133320,0.59927560,0.59666160,0.59387240,0.58868220,0.57999080,0.56980220,0.55974360,0.55092820,0.54575900,0.54303080,0.54221280,0.54214660,0.54265240,0.54533820,0.54649980,0.54960500,0.55177340,0.55462420,0.55690880,0.55889280,0.55969840,0.56083140,0.56226680,0.56330440,0.56397480,0.56476580,0.56586960,0.56619580,0.56733860,0.56894840,0.56981900,0.57021960,0.57140760,0.57133840,0.57041120,0.56918160,0.56743800,0.56523020,0.56391880,0.56065680,0.55765280,0.55470320,0.55103320,0.54775220,0.54647560,0.54811300,0.54881780,0.54807760,0.54842780,0.54949940,0.55045580,0.55284840,0.55440300,0.55536560,0.55717200,0.55745780,0.55730400,0.55871500,0.55896780,0.55967100,0.55968500,0.56020780,0.55561120,0.54783580,0.52951840,0.50172200,0.46536000,0.43226980,0.41370500,0.40745160,0.40935100,0.41433120,0.42314360,0.43150620,0.43991860,0.44785360,0.45450200,0.46174640,0.46815680,0.47215980,0.47363620,0.47309980,0.47025360,0.46561240,0.46109560,0.45694820,0.45222040,0.44963320,0.44631000,0.44384880,0.44196980,0.43984580,0.43875680,0.43829260,0.43824160,0.43889140,0.43791360,0.43936620,0.44111880,0.44257180,0.44712600,0.44860180,0.45276740,0.45641420,0.45977000,0.46201000,0.46273360,0.46035820,0.45428960,0.44321620,0.43208880,0.42053380,0.41330300,0.40632380,0.39907700,0.39061420,0.38332300,0.38264280,0.38801540,0.38808060,0.38680220,0.38444980,0.38484380,0.38812980,0.38971300,0.38968300,0.38909780,0.38626300,0.38632940
0.56341300,0.56541980,0.56759320,0.56995640,0.57193760,0.57399540,0.57648420,0.57864360,0.58067500,0.58287900,0.58515980,0.58645620,0.58804440,0.58940400,0.59133720,0.59191740,0.59356940,0.59422620,0.59466660,0.59494400,0.59461660,0.59431760,0.59423100,0.59475940,0.59532280,0.59629640,0.59762440,0.59895060,0.60153220,0.60399560,0.60639460,0.60770660,0.60933000,0.61088520,0.61212180,0.61235520,0.61362320,0.61460700,0.61600120,0.61598560,0.61626040,0.61610060,0.61526780,0.61330860,0.61175140,0.60914560,0.60632660,0.60498700,0.60073600,0.59448320,0.58519360,0.57083600,0.55400800,0.53934680,0.52781360,0.52066340,0.51729980,0.51601660,0.51608100,0.51773040,0.52132140,0.52489900,0.52871320,0.53327840,0.53705780,0.54093860,0.54437460,0.54726360,0.54862800,0.55051920,0.55169460,0.55370020,0.55521460,0.55703460,0.55846200,0.56083900,0.56287980,0.56495300,0.56556460,0.56679180,0.56688760,0.56561260,0.56332180,0.56033000,0.55774960,0.55532140,0.55234540,0.54808180,0.54495400,0.54107780,0.53691240,0.53411480,0.53673100,0.53894860,0.53857360,0.53933220,0.54056380,0.54176280,0.54501600,0.54499320,0.54558680,0.54797600,0.54902620,0.55036180,0.55317600,0.55335220,0.55492040,0.55499260,0.55201960,0.54638920,0.53245260,0.49495800,0.45471200,0.39278300,0.36098260,0.33954840,0.33043320,0.33674340,0.34569180,0.35641920,0.37007000,0.38162600,0.39232620,0.40483160,0.41403340,0.42370740,0.43101580,0.43248360,0.43161980,0.42948180,0.42406520,0.41834140,0.41300140,0.41020060,0.40580560,0.40336720,0.40049740,0.39956500,0.39697460,0.39432880,0.39405340,0.39367140,0.39250980,0.39047740,0.39450860,0.39646160,0.39911480,0.40145400,0.40379980,0.40943180,0.41291180,0.41540200,0.41836140,0.41809920,0.41309780,0.40162600,0.38732600,0.37249820,0.36296320,0.35616460,0.35103920,0.34448020,0.33736440,0.32969160,0.32775680,0.33442460,0.33585740,0.33392500,0.33177860,0.33146820,0.33567820,0.33666440,0.33718180,0.33619760,0.33476500,0.33261780
0.58508620,0.58691380,0.58908020,0.59098260,0.59245200,0.59415600,0.59590800,0.59734980,0.59870580,0.60019940,0.60154360,0.60261880,0.60346840,0.60420240,0.60505840,0.60515340,0.60549760,0.60578700,0.60517940,0.60427640,0.60333920,0.60217600,0.60084200,0.60044280,0.59975160,0.60012540,0.60092660,0.60133880,0.60380280,0.60523020,0.60723420,0.60795340,0.60905620,0.60974540,0.61017640,0.61058680,0.61109680,0.61137640,0.61187720,0.61147180,0.61091600,0.61010760,0.60842200,0.60556960,0.60332080,0.59981600,0.59702180,0.59420800,0.58976420,0.58313040,0.57273440,0.55667200,0.53868480,0.52197760,0.50840560,0.49945100,0.49445580,0.49196200,0.49188820,0.49278240,0.49609080,0.49931180,0.50363100,0.50739060,0.51121360,0.51427060,0.51756480,0.51968140,0.52135260,0.52250120,0.52379620,0.52473160,0.52570180,0.52793420,0.52914720,0.53105220,0.53302140,0.53426140,0.53505140,0.53626520,0.53686260,0.53479980,0.53188560,0.52881140,0.52640220,0.52300240,0.52075560,0.51581360,0.51229520,0.50822860,0.50413780,0.50100480,0.50359920,0.50537220,0.50571060,0.50569320,0.50659680,0.50864640,0.51079720,0.51119700,0.51193520,0.51471120,0.51471860,0.51632040,0.51868420,0.51946940,0.52111980,0.52086460,0.51910500,0.51366500,0.50089200,0.46873540,0.42877180,0.37911800,0.33784260,0.31584020,0.30826000,0.31124120,0.31884920,0.32989020,0.34192800,0.35308020,0.36400380,0.37509460,0.38448320,0.39236300,0.39832060,0.40145260,0.39880480,0.39495540,0.38912560,0.38138700,0.37551500,0.37073140,0.36657440,0.36243420,0.35829600,0.35633520,0.35348000,0.35158960,0.35081260,0.34925480,0.34793640,0.34790440,0.35008120,0.35211920,0.35467920,0.35782200,0.36006560,0.36527700,0.36851240,0.37145820,0.37453780,0.37569240,0.37085140,0.36059280,0.34651440,0.33352200,0.32314180,0.31652520,0.31106900,0.30626360,0.29908260,0.29281440,0.29028380,0.29671060,0.29782100,0.29632380,0.29327900,0.29410800,0.29848700,0.30095880,0.30103120,0.29970520,0.29809820,0.29717600
0.56010800,0.56107900,0.56202500,0.56277520,0.56354040,0.56427900,0.56505640,0.56565080,0.56628860,0.56699780,0.56741780,0.56787300,0.56820900,0.56852220,0.56874780,0.56852280,0.56835660,0.56800780,0.56697820,0.56590180,0.56443580,0.56296100,0.56175360,0.56038160,0.55963860,0.55927360,0.55944280,0.55953600,0.56108600,0.56227340,0.56326840,0.56404940,0.56434120,0.56447520,0.56490600,0.56468200,0.56490480,0.56516640,0.56532500,0.56486220,0.56442780,0.56322580,0.56162080,0.55940000,0.55640080,0.55339140,0.55050040,0.54775300,0.54427260,0.53894100,0.53078380,0.51788980,0.50249260,0.48691780,0.47409840,0.46481400,0.45917920,0.45631560,0.45490740,0.45526860,0.45733040,0.45979260,0.46274260,0.46553680,0.46847760,0.47107960,0.47326660,0.47482880,0.47582360,0.47656600,0.47715960,0.47767320,0.47850860,0.47920440,0.48047800,0.48200500,0.48402780,0.48533160,0.48690820,0.48743100,0.48762420,0.48637320,0.48431480,0.48231200,0.48124300,0.47883180,0.47592740,0.47249080,0.46923080,0.46523900,0.46168040,0.45939880,0.46094860,0.46294660,0.46292500,0.46258400,0.46310420,0.46522080,0.46635400,0.46733400,0.46845360,0.46931020,0.47030140,0.47161980,0.47330400,0.47469740,0.47566080,0.47588920,0.47359440,0.46813360,0.45796480,0.43355740,0.40447120,0.35621060,0.32795920,0.30759820,0.29864020,0.29916180,0.30533600,0.31313980,0.32366140,0.33373520,0.34230440,0.35136780,0.35885560,0.36564980,0.36992480,0.37059440,0.36843940,0.36463440,0.35769560,0.35039440,0.34267800,0.33622400,0.33157040,0.32701480,0.32365000,0.32052340,0.31767480,0.31631140,0.31457340,0.31372500,0.31400280,0.31335220,0.31754080,0.31963980,0.32214800,0.32411020,0.32704900,0.33077040,0.33478520,0.33835680,0.34128600,0.34173800,0.33983540,0.33159800,0.32170580,0.30945380,0.30110700,0.29475080,0.29001180,0.28442760,0.27824380,0.27164740,0.26901780,0.27425500,0.27543360,0.27585800,0.27418300,0.27474080,0.27856580,0.28108920,0.28149680,0.28003380,0.27925380,0.27726160
0.56063520,0.56261900,0.56485740,0.56640880,0.56824420,0.56998600,0.57173300,0.57382720,0.57540220,0.57685980,0.57836580,0.57988200,0.58075840,0.58192520,0.58322120,0.58393740,0.58483400,0.58560380,0.58519400,0.58510040,0.58489220,0.58464900,0.58392820,0.58418100,0.58425300,0.58447000,0.58590420,0.58622880,0.58879460,0.59016320,0.59231900,0.59376680,0.59429140,0.59607780,0.59652260,0.59740540,0.59844880,0.59911020,0.59991340,0.60046080,0.60075940,0.60052240,0.59979160,0.59811760,0.59636620,0.59416500,0.59191840,0.59009300,0.58651200,0.58305720,0.57585140,0.56568700,0.55254260,0.53881740,0.52824140,0.52097960,0.51676240,0.51496800,0.51477260,0.51544740,0.51832960,0.52047200,0.52361120,0.52673180,0.52993400,0.53244380,0.53516100,0.53634060,0.53774100,0.53925140,0.54024540,0.54100040,0.54171320,0.54373800,0.54440660,0.54578460,0.54750380,0.54936660,0.55030260,0.55031840,0.55158500,0.55029700,0.54876840,0.54590340,0.54297540,0.54072800,0.53664360,0.53260420,0.52817880,0.52487700,0.52108340,0.51932160,0.52162980,0.52306380,0.52329700,0.52420620,0.52524740,0.52631380,0.52905080,0.52900580,0.52938560,0.53167940,0.53225000,0.53371220,0.53516860,0.53708620,0.53800480,0.53844720,0.53831040,0.53538480,0.52449840,0.49550560,0.46430480,0.42398260,0.39122260,0.37305940,0.36675880,0.37066560,0.37846340,0.38824040,0.39810040,0.40732820,0.41645660,0.42530500,0.43182560,0.43778080,0.44076700,0.44085100,0.43832960,0.43311080,0.42397660,0.41675380,0.40850160,0.40281740,0.39931300,0.39504540,0.39158100,0.38832480,0.38522420,0.38472660,0.38354940,0.38382840,0.38339040,0.38292920,0.38398940,0.38537740,0.38683220,0.38801120,0.39155840,0.39407180,0.39830880,0.40159180,0.40423360,0.40408940,0.39939640,0.39115780,0.37773040,0.36612480,0.35529200,0.34789240,0.34185320,0.33596740,0.33002300,0.32452200,0.32289660,0.32801040,0.32924060,0.32796620,0.32553620,0.32762520,0.33133760,0.33446200,0.33628480,0.33563820,0.33514900,0.33299100
0.60129520,0.60514500,0.60937930,0.61245830,0.61611970,0.61989200,0.62340300,0.62677130,0.62989830,0.63317900,0.63648730,0.63913500,0.64213970,0.64472030,0.64737270,0.64945200,0.65204400,0.65342570,0.65464900,0.65525970,0.65594570,0.65566470,0.65689770,0.65742430,0.65902330,0.66018470,0.66287670,0.66499830,0.66937200,0.67299930,0.67619100,0.67912330,0.68174930,0.68373570,0.68647330,0.68806900,0.68991000,0.69200430,0.69323330,0.69500670,0.69565930,0.69547670,0.69489470,0.69313770,0.69111530,0.68789930,0.68581930,0.68232670,0.67818370,0.67175370,0.66027230,0.64295900,0.62211400,0.60359500,0.59007300,0.58222230,0.57763900,0.57623170,0.57603300,0.57808670,0.58221870,0.58715900,0.59117000,0.59642070,0.60107530,0.60651430,0.61071370,0.61373700,0.61623430,0.61880600,0.62029770,0.62195630,0.62436900,0.62616100,0.62745100,0.63076670,0.63397470,0.63577600,0.63718930,0.63862670,0.63865300,0.63737070,0.63443000,0.63111130,0.62769530,0.62331470,0.61850570,0.61127630,0.60480200,0.59810930,0.59278970,0.59082170,0.59358530,0.59764570,0.59747230,0.59810030,0.60109200,0.60417200,0.60621030,0.60744730,0.60943900,0.61166170,0.61346930,0.61445100,0.61718530,0.62012030,0.62101900,0.62012370,0.61769900,0.61103470,0.59487700,0.55835100,0.51131270,0.45224100,0.40716370,0.38640770,0.38217200,0.38680800,0.39742030,0.40903770,0.42209630,0.43457930,0.44638470,0.45678600,0.46736400,0.47594000,0.48182170,0.48351030,0.48049830,0.47497130,0.46628470,0.45907570,0.45177170,0.44575230,0.44176000,0.43832730,0.43353200,0.43112700,0.42578930,0.42404230,0.42348870,0.42263930,0.42132870,0.41981570,0.42206230,0.42340530,0.42556700,0.42820600,0.43163270,0.43736970,0.44194670,0.44463800,0.44901730,0.44871130,0.44162970,0.43219530,0.41713230,0.40164700,0.38905200,0.38164430,0.37282670,0.36489170,0.35521300,0.34637070,0.34657170,0.35327700,0.35677200,0.35397470,0.34973070,0.35265670,0.35704000,0.36062830,0.36196130,0.36033770,0.35825500,0.35625370
0.59449570,0.59532320,0.59604020,0.59745380,0.59874850,0.59956220,0.60094400,0.60121500,0.60273530,0.60381720,0.60492550,0.60557000,0.60627200,0.60728120,0.60847170,0.60893800,0.60987800,0.61059870,0.61041800,0.61090100,0.61087250,0.61055300,0.61080520,0.61082120,0.61110680,0.61199230,0.61322220,0.61477330,0.61689450,0.61895200,0.62087120,0.62211780,0.62385950,0.62523000,0.62672420,0.62776150,0.62837750,0.63002600,0.63124250,0.63194420,0.63314150,0.63282930,0.63277000,0.63259580,0.63209730,0.63055630,0.62982950,0.62870120,0.62648430,0.62390670,0.61898430,0.61175100,0.60178100,0.59210570,0.58480580,0.57928800,0.57726100,0.57651930,0.57650330,0.57724280,0.57919830,0.58149380,0.58304030,0.58599120,0.58908870,0.59171950,0.59445700,0.59579000,0.59713020,0.59861850,0.60003450,0.60137200,0.60257700,0.60416500,0.60509970,0.60689250,0.60792600,0.60993370,0.61105430,0.61230470,0.61296100,0.61250550,0.61224270,0.61077300,0.60829550,0.60515300,0.60080850,0.59626900,0.59273300,0.58925400,0.58621630,0.58413200,0.58549800,0.58737170,0.58786330,0.58803200,0.59038880,0.59239230,0.59468980,0.59587900,0.59703380,0.59867950,0.59861220,0.60083550,0.60178030,0.60297700,0.60339030,0.60490100,0.60517500,0.59936350,0.58911350,0.56274000,0.53553680,0.49479550,0.47060250,0.45237400,0.44168970,0.44019500,0.44369920,0.44979750,0.45843800,0.46545450,0.47479420,0.48198680,0.48802930,0.49551700,0.50031150,0.50181300,0.50155970,0.49921050,0.49590680,0.49049720,0.48594350,0.48319900,0.48200700,0.48110780,0.47971700,0.47951620,0.47789080,0.47798350,0.48000300,0.48186020,0.48209650,0.48043170,0.48363180,0.48251430,0.48362150,0.48471200,0.48867080,0.49118650,0.49354750,0.49548200,0.49913870,0.49817770,0.49633330,0.48843370,0.47801930,0.46443500,0.45039480,0.44185600,0.43403830,0.42762030,0.41902650,0.41183080,0.41037030,0.41982470,0.42094650,0.41890300,0.41530600,0.41613800,0.42008130,0.42215880,0.42070720,0.42082950,0.41779820,0.41721620
0.62940850,0.63011930,0.63087250,0.63137600,0.63204450,0.63235200,0.63290250,0.63376580,0.63434550,0.63489880,0.63563250,0.63590480,0.63608450,0.63631000,0.63669950,0.63664830,0.63659250,0.63646580,0.63591170,0.63497920,0.63381030,0.63259180,0.63109380,0.63046180,0.62973700,0.63002450,0.63013300,0.63102920,0.63284070,0.63395720,0.63499730,0.63599230,0.63651480,0.63720400,0.63713720,0.63756980,0.63786580,0.63827800,0.63890950,0.63897950,0.63831730,0.63749370,0.63680150,0.63468950,0.63293920,0.63017080,0.62801800,0.62585100,0.62321950,0.61917550,0.61289000,0.60418900,0.59254680,0.58024320,0.57014200,0.56306170,0.55973530,0.55822720,0.55697500,0.55788670,0.55865100,0.55922320,0.56121250,0.56354750,0.56548250,0.56836000,0.57022380,0.57111400,0.57212830,0.57375920,0.57447850,0.57478450,0.57546950,0.57673900,0.57829300,0.57966870,0.58182700,0.58331070,0.58389550,0.58463750,0.58533520,0.58566830,0.58451400,0.58201120,0.57810300,0.57412950,0.56990080,0.56525750,0.56182650,0.55834820,0.55461720,0.55239820,0.55337300,0.55472980,0.55561330,0.55645220,0.55859520,0.55995200,0.56168420,0.56220150,0.56443320,0.56515420,0.56523400,0.56589000,0.56808780,0.56887580,0.56990650,0.57014580,0.56957180,0.56686400,0.55735880,0.53523050,0.50729450,0.47203930,0.44372730,0.42623600,0.41766300,0.41678900,0.42066500,0.42830330,0.43575980,0.44258100,0.45073680,0.45832620,0.46312380,0.47004250,0.47155300,0.47208050,0.46961570,0.46343300,0.45635750,0.44791980,0.44132200,0.43774750,0.43623020,0.43372420,0.43273020,0.43133980,0.42998320,0.42892720,0.42936550,0.43048230,0.42967970,0.42828100,0.42861650,0.42833700,0.42865700,0.42992280,0.43346350,0.43671100,0.43969180,0.44309400,0.44560700,0.44428000,0.44299620,0.43516250,0.42315080,0.41006150,0.39718700,0.38797950,0.38143870,0.37505550,0.36852330,0.36287230,0.36485030,0.36840130,0.37095020,0.36950130,0.36613850,0.36801700,0.37199820,0.37409300,0.37466950,0.37519200,0.37524050,0.37274850
