1000,1005,1010,1015,1020,1025,1030,1035,1040,1045,1050,1055,1060,1065,1070,1075,1080,1085,1090,1095,1100,1105,1110,1115,1120,1125,1130,1135,1140,1145,1150,1155,1160,1165,1170,1175,1180,1185,1190,1195,1200,1205,1210,1215,1220,1225,1230,1235,1240,1245,1250,1255,1260,1265,1270,1275,1280,1285,1290,1295,1300,1305,1310,1315,1320,1325,1330,1335,1340,1345,1350,1355,1360,1365,1370,1375,1380,1385,1390,1395,1400,1405,1410,1415,1420,1425,1430,1435,1440,1445,1450,1455,1460,1465,1470,1475,1480,1485,1490,1495,1500,1505,1510,1515,1520,1525,1530,1535,1540,1545,1550,1555,1560,1565,1570,1575,1580,1585,1590,1595,1600,1605,1610,1615,1620,1625,1630,1635,1640,1645,1650,1655,1660,1665,1670,1675,1680,1685,1690,1695,1700,1705,1710,1715,1720,1725,1730,1735,1740,1745,1750,1755,1760,1765,1770,1775,1780,1785,1790,1795,1800,1805,1810,1815,1820,1825,1830,1835,1840,1845,1850,1855,1860,1865,1870,1875,1880,1885,1890,1895,1900,1905,1910,1915,1920,1925,1930,1935,1940,1945,1950,1955,1960,1965,1970,1975,1980,1985,1990,1995,2000,2005,2010,2015,2020,2025,2030,2035,2040,2045,2050,2055,2060,2065,2070,2075,2080,2085,2090,2095,2100,2105,2110,2115,2120,2125,2130,2135,2140,2145,2150,2155,2160,2165,2170,2175,2180,2185,2190,2195,2200,2205,2210,2215,2220,2225,2230,2235,2240,2245,2250,2255,2260,2265,2270,2275,2280,2285,2290,2295,2300,2305,2310,2315,2320,2325,2330,2335,2340,2345,2350,2355,2360,2365,2370,2375,2380,2385,2390,2395,2400,2405,2410,2415,2420,2425,2430,2435,2440,2445,2450,2455,2460,2465,2470,2475,2480,2485,2490,2495,2500
0.02802089,0.03570162,0.05054849,0.06711543,0.07918588,0.06936566,0.06935668,0.08091056,0.07375108,0.06500126,0.05712346,0.03556237,0.03141761,0.01398802,0.02091319,0.01045531,0.00849670,0.00274489,0.01572165,0.01426780,0.01466189,0.00801229,0.01758896,0.03789329,0.04622457,0.06622120,0.08559446,0.09536922,0.11098146,0.08898621,0.09983369,0.08450659,0.06452607,0.05780764,0.05160492,0.06883585,0.06767912,0.08292335,0.11148295,0.12593117,0.14476407,0.17008316,0.15049297,0.16551037,0.14312160,0.13477611,0.11693989,0.09549127,0.06571886,0.05914845,0.04972772,0.04817988,0.03332051,0.02141332,0.02146784,0.01967111,0.03102156,0.02846749,0.01558570,0.02159538,0.03206399,0.02058393,0.02860952,0.02443739,0.02789704,0.02465410,0.02045286,0.02337872,0.03207358,0.03913534,0.03367372,0.04267134,0.05246184,0.05720000,0.07642741,0.10861780,0.13000213,0.14008767,0.14325286,0.15203347,0.14557638,0.14216010,0.12821051,0.12718083,0.13825147,0.14762201,0.15920342,0.19130210,0.21075976,0.24350988,0.24892448,0.27690700,0.29373318,0.30948280,0.33405585,0.37117847,0.40581909,0.42898602,0.46448604,0.50753990,0.51267209,0.51441774,0.51577174,0.47142153,0.43614146,0.37095429,0.31553417,0.25596156,0.20485761,0.17120990,0.15564046,0.13315388,0.12228208,0.13011923,0.11293263,0.12790642,0.12298745,0.11807117,0.11685390,0.11187476,0.09795958,0.09731863,0.08116122,0.09112620,0.09263383,0.10790283,0.11128510,0.12195796,0.14339576,0.17773708,0.21029350,0.23257136,0.26683533,0.32318382,0.35499369,0.37138452,0.41864582,0.42635558,0.43171129,0.43739765,0.44301676,0.42949426,0.41660161,0.40899121,0.37055853,0.35619489,0.32769085,0.30479766,0.26907969,0.24532482,0.22302691,0.20711295,0.18177455,0.17815082,0.17460421,0.18497885,0.17400513,0.16165384,0.15073373,0.13359989,0.12705054,0.10416848,0.09784117,0.08635052,0.07277935,0.08032311,0.07466272,0.07024549,0.06420307,0.07383027,0.06677561,0.06459333,0.07955276,0.07435534,0.07890911,0.08462491,0.09247268,0.08298826,0.08504377,0.10838718,0.10730902,0.11916322,0.13148751,0.14448705,0.13839226,0.14715512,0.14276682,0.16246488,0.16283200,0.16391304,0.17434359,0.15291798,0.14679813,0.14787508,0.15689483,0.14275228,0.14893749,0.16624194,0.16760690,0.18788771,0.20849585,0.25059156,0.27578480,0.32821682,0.36081343,0.41448137,0.45041071,0.51082109,0.51735134,0.60190236,0.61096361,0.61377659,0.63116461,0.64370034,0.64304158,0.62345124,0.62839460,0.59122069,0.55787198,0.53502106,0.51023329,0.45116266,0.42143847,0.40512201,0.36715037,0.33910342,0.33628962,0.32385852,0.30062571,0.30845373,0.34226336,0.37157230,0.38928200,0.42352275,0.43621228,0.46622648,0.45148467,0.45925483,0.44453133,0.40851583,0.37542096,0.33702269,0.30534632,0.25717449,0.24284068,0.20149009,0.20997651,0.20115252,0.21190092,0.23038439,0.24917963,0.28773729,0.32057646,0.35885910,0.41471171,0.46776619,0.48578522,0.55123725,0.56425268,0.61539614,0.62846984,0.62607979,0.62501444,0.59867702,0.56408331,0.49523840,0.50821680,0.46131113,0.41729410,0.42003584,0.38816430,0.35339867,0.33052268,0.27543313,0.23067756,0.20819311,0.16481814,0.15537084,0.12629632,0.12649266,0.12780749,0.11858873,0.10680404,0.10072465,0.10845323,0.10230082,0.12205968,0.12089207,0.10218266,0.11487149,0.12232664,0.12679120,0.11507818,0.12431420,0.11829157,0.12455849,0.13311792,0.11632152,0.12994116,0.13583335,0.12017596
-0.00124516,0.00469891,0.02022364,0.02691048,0.03073931,0.02962736,0.04247724,0.03023186,0.03425510,0.02215182,0.01325672,0.00500485,-0.00484153,-0.00697378,-0.00666730,-0.01084527,-0.00976210,-0.01328566,-0.01224719,-0.01541301,-0.01504428,0.00461705,0.00355527,0.01746487,0.02225898,0.04924357,0.06524113,0.06203498,0.07338775,0.05412555,0.05227854,0.04249804,0.03522848,0.03151617,0.02564161,0.03524008,0.04227533,0.06778865,0.06167795,0.08290285,0.09810151,0.10578747,0.09243452,0.09807900,0.09843878,0.08470863,0.05561794,0.05236570,0.04393323,0.03145892,0.02225615,0.00720166,0.00886223,0.01136331,0.01922350,0.00883675,0.01281956,0.00822441,0.01355977,0.02076443,0.01360938,0.01451405,0.02182646,0.01181525,0.01766224,0.01431452,0.02403324,0.01867301,0.02736065,0.03304709,0.02259035,0.03904295,0.04772105,0.05119764,0.06287102,0.09074742,0.10053904,0.11028579,0.12095079,0.11850962,0.11802891,0.11912793,0.11547656,0.11304732,0.12959869,0.13804634,0.15495926,0.18599892,0.21119260,0.21085947,0.24984783,0.27292875,0.28092089,0.25371231,0.29743314,0.30977893,0.33456518,0.36149539,0.37451500,0.37660203,0.39644544,0.40442347,0.39191759,0.37014879,0.32748503,0.29484457,0.23099853,0.19257314,0.16865711,0.14004839,0.13472124,0.10795131,0.10022857,0.11194207,0.12437198,0.11413819,0.11255827,0.12007520,0.11168878,0.10563761,0.09598008,0.08303584,0.10174842,0.08279168,0.09673278,0.08681682,0.10502921,0.11455855,0.13645665,0.15972172,0.20201907,0.22646755,0.26067647,0.28909539,0.29947474,0.32937123,0.33311046,0.37168453,0.36749272,0.35862467,0.33817876,0.35382945,0.32445389,0.30333301,0.27974767,0.28629415,0.25857910,0.22399137,0.21198330,0.17327871,0.17932002,0.15883569,0.16004550,0.14582650,0.13293649,0.12292825,0.13616229,0.11551255,0.12169405,0.11564178,0.09564556,0.09948481,0.09750187,0.08836967,0.08067877,0.07220194,0.08672526,0.08164064,0.07878940,0.08133094,0.08504602,0.10238694,0.09020920,0.10019092,0.09191354,0.11162809,0.10761487,0.11687374,0.11818065,0.12756706,0.13327252,0.15645477,0.16889944,0.17673094,0.18060471,0.18970924,0.20316994,0.19763873,0.19607163,0.19985057,0.19294076,0.19716220,0.18570180,0.17395615,0.16915102,0.16738208,0.19062621,0.18642640,0.20643664,0.22358399,0.23185229,0.27902668,0.28934026,0.32821989,0.35366697,0.40066415,0.42803095,0.47013486,0.51058803,0.52094537,0.51636820,0.52318512,0.53001684,0.55710604,0.52229573,0.48990086,0.48806395,0.47723413,0.44378547,0.43464973,0.41079898,0.36700822,0.36006071,0.31994521,0.32322997,0.29151063,0.30126261,0.28955160,0.29181267,0.31266902,0.33492260,0.34813776,0.38547178,0.39101416,0.40588310,0.42406752,0.42708015,0.39925576,0.39102905,0.37310926,0.33135567,0.29501521,0.27944828,0.25819524,0.22514635,0.21700848,0.20819144,0.21728179,0.23075980,0.23232460,0.27309543,0.28475507,0.31172242,0.35143600,0.38425018,0.42088864,0.43098277,0.50547787,0.51350458,0.52192449,0.53423024,0.50976668,0.48949436,0.47975426,0.43205863,0.41317452,0.39962292,0.37311281,0.35782015,0.32401164,0.29691310,0.29491183,0.26870471,0.24727901,0.22690891,0.19457774,0.18165158,0.17568969,0.15083385,0.15690902,0.15294413,0.15758477,0.16630179,0.15674289,0.15395457,0.15418623,0.15536923,0.16445238,0.15021098,0.17528459,0.17133440,0.17132477,0.17538598,0.17534990,0.18897151,0.17098752,0.16987731,0.18699033,0.17539811,0.18766424,0.18945487
0.04886048,0.03388448,0.04020577,0.03764925,0.05512365,0.05327168,0.04993211,0.04944993,0.03841294,0.03929034,0.03769954,0.03900586,0.02775699,0.02639647,0.03027287,0.03075016,0.01261670,0.02515033,0.01771174,0.02432809,0.02015114,0.03191403,0.02456511,0.02630346,0.03601888,0.04307986,0.05958226,0.05541255,0.05410283,0.06789837,0.06523339,0.05844841,0.04425611,0.06045610,0.07897029,0.09153055,0.11720593,0.15131390,0.18700248,0.21626171,0.26582746,0.27188671,0.28890343,0.26414147,0.25892460,0.21502353,0.17048288,0.15845897,0.11649168,0.08632723,0.06479727,0.06224115,0.03193313,0.04895066,0.03237164,0.04462425,0.03201158,0.03132583,0.04029743,0.02668763,0.03439488,0.03580514,0.02841943,0.02679787,0.04058918,0.02455516,0.03261434,0.03722626,0.04046612,0.03369617,0.04965479,0.05819323,0.06838950,0.09354326,0.11777622,0.16367074,0.19605493,0.23869524,0.25530742,0.24317166,0.22679968,0.22395381,0.19269475,0.18588572,0.19676015,0.21698906,0.23733395,0.26715585,0.28490107,0.32923972,0.34388402,0.35964749,0.34995969,0.35449985,0.35424429,0.34374781,0.33407207,0.32334889,0.32154350,0.30255004,0.28669639,0.27219303,0.25604030,0.24633852,0.20188210,0.18493355,0.15735428,0.13137911,0.12022865,0.11296115,0.11314324,0.10672254,0.11465658,0.13334981,0.15109421,0.14128015,0.14462643,0.13559742,0.13828838,0.12649401,0.12552306,0.09826358,0.09257379,0.07327342,0.07791467,0.08622215,0.07478376,0.07902628,0.08372776,0.10053120,0.11801208,0.13849918,0.15765439,0.18361812,0.20556865,0.23919183,0.27553412,0.32307449,0.33261913,0.37497633,0.41701212,0.44802694,0.47167479,0.47946428,0.47371692,0.45824187,0.43563003,0.41104402,0.36969280,0.32149553,0.25182204,0.24247544,0.20890323,0.18310037,0.15433967,0.14735617,0.12290037,0.11881883,0.10993266,0.10192750,0.08344708,0.08738400,0.07719244,0.07487557,0.06492025,0.07752416,0.07093127,0.06122173,0.06066359,0.05664074,0.07330576,0.06349758,0.06776855,0.07875803,0.07980230,0.09260514,0.09256858,0.10705473,0.11373599,0.13199015,0.15895198,0.16442640,0.17561893,0.18506135,0.20489923,0.21237857,0.23801480,0.22230602,0.24132142,0.23055701,0.22573914,0.23065613,0.21488314,0.20773735,0.18751651,0.16506675,0.16308524,0.14414561,0.15120978,0.14803019,0.15327509,0.16015676,0.17410601,0.17710898,0.18205163,0.21947261,0.23964418,0.25073088,0.27509296,0.30327644,0.32828766,0.34735195,0.35721239,0.38228011,0.38570802,0.40009873,0.41441258,0.40186038,0.41402737,0.41425167,0.37851802,0.39344689,0.36063741,0.33315293,0.30201452,0.28558361,0.26383502,0.23437530,0.24205100,0.23897679,0.23296261,0.22893309,0.23028039,0.23009315,0.22558754,0.24670545,0.22205121,0.23688683,0.22230016,0.21678916,0.20716548,0.17706758,0.17578670,0.16522852,0.15590920,0.15266795,0.17642409,0.17426399,0.19564803,0.21221735,0.24278263,0.25782453,0.30044268,0.32792637,0.38463572,0.38812571,0.45873507,0.49058671,0.52534192,0.57688262,0.57615171,0.58354864,0.59523657,0.58198062,0.56841300,0.54558968,0.53706339,0.50706809,0.53086108,0.47335080,0.45193268,0.42041134,0.40241346,0.33204613,0.26957047,0.24187746,0.19348939,0.15462369,0.15593381,0.13566181,0.12008514,0.13811232,0.12007624,0.12759864,0.12846785,0.13283936,0.12515488,0.13160533,0.13200558,0.13877711,0.13800283,0.13884834,0.16369969,0.15570016,0.16602410,0.15639651,0.15135077,0.16010287,0.16287949,0.15877871,0.16276901
0.07201370,0.06455263,0.06962407,0.07196051,0.06636113,0.06479640,0.06645997,0.05811297,0.06773023,0.06326286,0.05998400,0.06243245,0.05416513,0.05210584,0.05821859,0.05653676,0.05226618,0.05096087,0.05194699,0.04583689,0.05641682,0.05379032,0.06181845,0.06218011,0.05192652,0.06372445,0.05792047,0.06879270,0.06178534,0.06244325,0.07564902,0.07054109,0.07283378,0.06309909,0.06355791,0.05573789,0.06910159,0.07067057,0.06846306,0.06584976,0.06457451,0.07129569,0.07630968,0.07626521,0.07699326,0.06797151,0.06942598,0.06993365,0.05615900,0.06317530,0.06400255,0.06812602,0.06336555,0.06449390,0.07162536,0.05806229,0.05099385,0.05601382,0.06583873,0.06342988,0.06998330,0.06598692,0.06467567,0.07003807,0.06647893,0.06202812,0.06718076,0.06448667,0.07936223,0.05554315,0.06928265,0.08264012,0.06799039,0.06409838,0.07556746,0.07348741,0.08692442,0.10296275,0.11482777,0.12615735,0.13946674,0.14444214,0.16098636,0.19786823,0.25165559,0.28610558,0.34780810,0.39195713,0.45169940,0.51123847,0.55182963,0.56641681,0.60575304,0.63160401,0.61754255,0.62068799,0.61218102,0.56994603,0.50595953,0.48560365,0.44816555,0.39682522,0.34569486,0.29827133,0.26053358,0.23235306,0.19753392,0.17669177,0.15635574,0.14402253,0.14721352,0.13916170,0.16726093,0.17915597,0.19327700,0.20863577,0.21818692,0.21949747,0.22155088,0.20588744,0.18668916,0.16454974,0.14334730,0.13799249,0.11833424,0.11260796,0.09562976,0.08678417,0.08516642,0.09838770,0.10821618,0.09703283,0.11245171,0.11547083,0.11331157,0.11871776,0.12517744,0.12701097,0.13470050,0.13512242,0.12838975,0.13663263,0.14579653,0.12230948,0.12306551,0.13260668,0.12713362,0.11967009,0.13690502,0.12117637,0.12409878,0.15172366,0.17046338,0.18691304,0.20170049,0.21034578,0.22596267,0.24246909,0.22889407,0.22191231,0.19374800,0.16510542,0.14958781,0.13867493,0.11813168,0.11581576,0.10650975,0.10624061,0.08694337,0.10178865,0.09641441,0.10541934,0.11755813,0.11498036,0.12263793,0.12861940,0.13721195,0.14983429,0.16403618,0.18561313,0.21421576,0.23842736,0.27306045,0.29059579,0.31243842,0.34239380,0.37577999,0.36507820,0.40129171,0.40197948,0.38719119,0.39534534,0.36165657,0.34438000,0.32218674,0.29843419,0.27248586,0.23205541,0.21134074,0.20991398,0.18824076,0.17339416,0.16995574,0.16979733,0.18312632,0.18010647,0.21577069,0.21108922,0.23689150,0.27541043,0.30663810,0.35625571,0.38108608,0.43392518,0.48178564,0.51600984,0.58237556,0.60557798,0.62795402,0.63883552,0.61032089,0.63623009,0.59205987,0.57234297,0.53984369,0.48747883,0.43371923,0.37588455,0.34639509,0.31377198,0.27179325,0.25522838,0.23176045,0.20687078,0.19827277,0.19518564,0.19621502,0.17307165,0.18928357,0.16469284,0.16667855,0.15576911,0.16173040,0.15801092,0.16844887,0.17328466,0.18930139,0.21572760,0.22246365,0.25822490,0.31021828,0.34687277,0.40712131,0.43270273,0.46323563,0.49340178,0.49807715,0.51127344,0.51228475,0.50016131,0.45976792,0.41763844,0.41279509,0.37296557,0.33804775,0.33157352,0.33476459,0.34968934,0.34493715,0.34869711,0.31912838,0.30310907,0.27264321,0.26855015,0.21168163,0.19587707,0.17702920,0.17261693,0.15076355,0.14943393,0.13676632,0.13752983,0.13634876,0.15277610,0.14836330,0.14611818,0.16264180,0.16787600,0.16664189,0.19232587,0.17801251,0.18551375,0.19605646,0.19109439,0.20088570,0.20336125,0.22116525,0.21517405,0.21441841,0.22548713,0.22906932
0.02359892,0.02615568,0.02476208,0.02414447,0.01230304,0.01991079,0.01659196,0.02123582,0.00937120,0.00909557,0.00526032,0.01535415,-0.00114182,-0.00428398,-0.00542811,0.00232401,-0.00489303,0.00080323,-0.00556142,-0.00359715,0.00740737,-0.00111891,0.00884957,0.00917069,0.01154423,0.00470546,0.02030587,0.02815362,0.03239477,0.02872906,0.02308066,0.01475221,0.01842084,0.01742147,0.03330503,0.04099865,0.06378870,0.09114115,0.11404030,0.12337277,0.15137982,0.17218161,0.15930948,0.15940207,0.14709188,0.12089428,0.10483456,0.07091984,0.04621766,0.04601120,0.01967781,0.00412236,0.00670083,0.00943994,-0.00064801,-0.00797616,0.00127255,-0.01058766,-0.00498746,-0.00198278,-0.00545745,-0.00238200,-0.01748675,-0.00197090,0.00103389,-0.00942846,-0.01296064,-0.00232882,0.00534852,0.00322762,-0.00795173,0.00908569,0.02480202,0.04820370,0.05788632,0.10889945,0.11911124,0.14387671,0.15913991,0.17187293,0.15563908,0.15545543,0.17021973,0.17821656,0.20457612,0.24069266,0.29854172,0.32387281,0.37023960,0.40085302,0.43900679,0.42731324,0.43967632,0.43221162,0.41495006,0.39237661,0.35255976,0.34480450,0.30851284,0.28216025,0.25085183,0.23473559,0.21027756,0.18187398,0.16130704,0.14006488,0.09990823,0.07052782,0.07219005,0.07674371,0.07209372,0.07226137,0.10066072,0.10235827,0.13646781,0.13056352,0.12726681,0.13666521,0.10229048,0.09908001,0.07693699,0.05405494,0.05157388,0.04381603,0.02192194,0.03047502,0.03510095,0.03586359,0.03856636,0.04218128,0.06033115,0.07558011,0.09208882,0.10074495,0.13632009,0.15286990,0.16944980,0.20272285,0.23351695,0.25725139,0.26883047,0.29121937,0.30835124,0.30896684,0.28390621,0.27473050,0.25063357,0.22760028,0.20725475,0.18587762,0.15658133,0.11916371,0.09982317,0.09590200,0.07411478,0.07469755,0.06069789,0.06642343,0.04153651,0.03942890,0.03193961,0.02225958,0.01133578,0.00637740,0.01157219,0.00904719,0.00477555,0.00411613,0.00465407,0.00482862,0.00956392,0.01147655,0.01802732,0.01608037,0.02931097,0.03428225,0.04904734,0.06067361,0.07736418,0.09752197,0.11448291,0.13691379,0.15994025,0.18419896,0.20598734,0.21788626,0.24429520,0.24182271,0.25135619,0.22316901,0.23276651,0.22067251,0.20541738,0.18421398,0.15302554,0.14100618,0.12049008,0.11606463,0.08937807,0.09391243,0.09867994,0.09654009,0.10026007,0.11501237,0.13379271,0.14982382,0.16250302,0.19912257,0.21271434,0.24230515,0.27063108,0.29095467,0.31217606,0.33018305,0.35943091,0.38501569,0.40131261,0.39849291,0.42072532,0.38118080,0.40000555,0.38340494,0.34728499,0.32996707,0.30039208,0.25156353,0.23861953,0.20963153,0.18369893,0.17251962,0.15313268,0.14446489,0.14530060,0.14505962,0.16293888,0.14372628,0.14678573,0.13526737,0.12606170,0.11865103,0.11298447,0.08799437,0.09207079,0.08025688,0.08328206,0.08717075,0.10682863,0.11517061,0.14327267,0.18261896,0.20306881,0.24026048,0.26981102,0.30626078,0.33598405,0.37227878,0.38807028,0.39978346,0.41791355,0.42515199,0.42102539,0.43374574,0.42968213,0.39945008,0.37404445,0.36863796,0.34248836,0.32746329,0.32199313,0.30458091,0.26300169,0.24779916,0.21050148,0.16928034,0.13475784,0.10381079,0.08019825,0.05887543,0.05303516,0.04799361,0.04261510,0.04003618,0.04419296,0.03421169,0.05023757,0.05081771,0.06456625,0.05324328,0.06038720,0.06547953,0.06212139,0.07933561,0.08321104,0.07226344,0.08373397,0.08266495,0.08672525,0.09110430,0.10440862,0.09313960,0.10310089
0.00945239,0.01405563,0.01236386,0.00951939,0.02277186,0.00909980,0.01657700,0.02479590,0.02615039,0.01973470,0.00701757,-0.00182225,0.00322300,0.00430151,0.00449679,-0.00157803,0.00089292,0.00485184,0.00440219,0.01119889,0.00837192,0.00978321,0.00600356,0.01205549,0.00528840,0.01741805,0.01502858,0.02686590,0.02994145,0.02686862,0.03240072,0.01909373,0.02170548,0.02100548,0.02657672,0.04247630,0.03725325,0.06522479,0.07552262,0.08216632,0.08535130,0.09394604,0.09084441,0.09821387,0.07538200,0.06627257,0.06088580,0.03586671,0.04795529,0.03038638,0.03022312,0.02305103,0.01029060,0.01819251,0.01935406,0.01065274,0.01153019,0.01141959,0.02116424,0.01086265,0.01296258,0.01759408,0.01902958,0.01563791,0.02737154,0.02808859,0.01358535,0.03031446,0.02434671,0.02701503,0.03037482,0.02334581,0.03082919,0.05014034,0.05577037,0.08938676,0.08354317,0.10166729,0.09588930,0.11715097,0.11641887,0.09864800,0.11774915,0.13077324,0.16267382,0.16546056,0.21526552,0.26454071,0.29808779,0.34005584,0.37704288,0.43693082,0.47171601,0.49432133,0.53913318,0.54932667,0.56778999,0.56731305,0.55184577,0.51131400,0.45361494,0.40893365,0.35062310,0.30482469,0.23777901,0.20755395,0.15980904,0.13843223,0.11666627,0.12307364,0.11663022,0.14251085,0.15005806,0.16809168,0.17910541,0.17622425,0.19069849,0.16220410,0.15880502,0.14458557,0.12581310,0.09630552,0.08087277,0.06986758,0.05694257,0.05685561,0.05219224,0.06195269,0.06250209,0.06534461,0.07372339,0.08827166,0.09272139,0.10010628,0.11313826,0.13302773,0.13133881,0.15475465,0.17020130,0.16972929,0.17951568,0.17665162,0.18264731,0.18498371,0.18792178,0.17751989,0.16662203,0.16650289,0.16213212,0.18901615,0.18744401,0.22500271,0.22879025,0.25972216,0.29926393,0.29479853,0.30891363,0.27840302,0.25124718,0.19219136,0.16616970,0.12802907,0.11178475,0.07837425,0.06671137,0.05294361,0.04287265,0.05249609,0.04569817,0.04904327,0.04169309,0.04717396,0.04354119,0.04649430,0.05180334,0.04983843,0.05841583,0.05172631,0.05937644,0.07317482,0.06574412,0.06411106,0.08636268,0.08256416,0.08119216,0.08362592,0.09634793,0.08750761,0.08449555,0.09791902,0.09403345,0.09413842,0.08487449,0.08806207,0.07794627,0.08032536,0.08351173,0.08546331,0.09411366,0.09811179,0.09633268,0.11001553,0.13324368,0.15633777,0.17528997,0.19819854,0.23781862,0.28638178,0.33634261,0.37400722,0.42919590,0.50197436,0.55939531,0.62872709,0.67574579,0.73870349,0.77708317,0.80992675,0.81034682,0.78216387,0.73671151,0.71217178,0.63742093,0.56527685,0.51060212,0.43492458,0.40266764,0.34058500,0.29618269,0.24521135,0.21916681,0.20068708,0.18168754,0.17425668,0.16904733,0.15489988,0.15279454,0.15458409,0.14043849,0.12152511,0.12134635,0.11970011,0.12189426,0.13213289,0.13829302,0.17605127,0.19542706,0.24193650,0.28257130,0.33127445,0.41779615,0.48701215,0.55120014,0.59220373,0.63423181,0.64466054,0.64053880,0.64882675,0.63051889,0.59994653,0.57255099,0.54614201,0.52421392,0.51277372,0.50438493,0.49683915,0.48190578,0.49601913,0.48814500,0.44671304,0.41496084,0.35033449,0.27256463,0.24246869,0.18112820,0.14846668,0.11770168,0.09979133,0.09636107,0.08562145,0.06623173,0.07400500,0.06637305,0.07722259,0.07907421,0.06825250,0.07665038,0.07785702,0.07681947,0.07967793,0.07342943,0.07699194,0.07545325,0.07685534,0.07695177,0.06542856,0.07687269,0.08432204,0.07086837,0.07547402,0.06110407
0.04108442,0.04555728,0.06547100,0.06279083,0.05881153,0.06742450,0.07898153,0.07346047,0.06293192,0.07340524,0.05079293,0.05720193,0.03474458,0.03392070,0.03467640,0.02325053,0.02465765,0.02377949,0.02923019,0.02263853,0.02574808,0.02169958,0.03989324,0.04678415,0.04217590,0.06156213,0.06984295,0.08314773,0.09112878,0.08891885,0.07688942,0.07113101,0.07198237,0.07707405,0.06880127,0.08957287,0.10477946,0.10486639,0.13084364,0.16642396,0.17852610,0.20011162,0.20815195,0.20191680,0.19924338,0.17311412,0.15384774,0.12575025,0.10388491,0.08222423,0.06345598,0.05319060,0.04238112,0.03986121,0.04061862,0.03446162,0.04024583,0.03923114,0.03383838,0.03077738,0.02645778,0.02221270,0.02931905,0.02383142,0.04075132,0.03057998,0.02786241,0.03278780,0.03212394,0.02220005,0.03335751,0.04752651,0.05677286,0.06958066,0.10226618,0.11148547,0.14535042,0.16331042,0.18030959,0.16948783,0.15392287,0.14190842,0.12385834,0.10768732,0.09365601,0.09466406,0.09145645,0.10546134,0.12155388,0.14153298,0.15459004,0.16846706,0.19123007,0.21257680,0.24324354,0.28597248,0.32250124,0.34240412,0.37234364,0.40087033,0.42085971,0.43201467,0.41891353,0.38463650,0.35397999,0.28074395,0.24756082,0.20046524,0.15754822,0.12603169,0.09993459,0.07448877,0.05772902,0.05028072,0.05130037,0.04901944,0.05796039,0.04242285,0.05481982,0.04878641,0.03625549,0.04463937,0.04097458,0.04187974,0.06393971,0.06383444,0.06693572,0.08675504,0.10424163,0.11986448,0.14645039,0.17250999,0.18909714,0.21289545,0.26306854,0.29094399,0.31502435,0.33415509,0.34398324,0.37827248,0.36833617,0.38638405,0.39222771,0.38334648,0.38695650,0.37183488,0.35625986,0.31049262,0.29747704,0.26306605,0.22745648,0.22606433,0.21911617,0.20695861,0.19682481,0.20716253,0.20261277,0.18198909,0.16482513,0.16405099,0.12085619,0.09625573,0.09439947,0.07854645,0.05854402,0.05660911,0.05341673,0.04631374,0.04590092,0.03672484,0.05518543,0.05462559,0.05587102,0.05971464,0.05295390,0.04414148,0.04951767,0.06896853,0.06802695,0.06578904,0.08340129,0.08666425,0.09251655,0.09059679,0.10938624,0.10974603,0.11407409,0.10833343,0.11767924,0.12372062,0.12563986,0.12446459,0.10715683,0.11413138,0.11338497,0.12005635,0.10676343,0.11150332,0.12315357,0.11084671,0.14032279,0.16325761,0.19373027,0.21520219,0.24057863,0.27695898,0.31272099,0.35994026,0.39053784,0.41332482,0.43619589,0.45887504,0.45764685,0.45437039,0.47052061,0.48518236,0.44106644,0.46752840,0.42544669,0.40945740,0.37041479,0.35600536,0.31340610,0.28497464,0.23594348,0.22192506,0.21279292,0.19224913,0.20168360,0.20337755,0.22069715,0.24854158,0.24484289,0.27271105,0.29146944,0.29022020,0.30560064,0.30409477,0.27574537,0.27357195,0.25059507,0.23806804,0.20620715,0.18276585,0.15272945,0.13958423,0.12183211,0.13385099,0.13393985,0.13955865,0.16196026,0.18389024,0.22032738,0.25668990,0.31455818,0.35911435,0.41189983,0.47626947,0.51766295,0.55055818,0.56696955,0.58087741,0.58161321,0.57219413,0.55322128,0.53022190,0.51430924,0.52635758,0.50112665,0.49589219,0.44077347,0.42689651,0.34422840,0.30471590,0.25901757,0.21294816,0.16956798,0.12806513,0.11659537,0.09086528,0.07842380,0.08025684,0.08236101,0.07974612,0.07619018,0.07800089,0.07550834,0.08657434,0.06768700,0.07684393,0.08100374,0.07814331,0.08122688,0.07372457,0.09270638,0.08675792,0.08807922,0.09384574,0.08959881,0.09538007,0.09172267
0.02406034,0.01420188,0.02390868,0.02107266,0.02167815,0.03016490,0.03073716,0.01099955,0.02826738,0.01609296,0.00618629,0.01337076,0.00220129,0.00020312,-0.00267251,-0.00375286,-0.00716268,-0.00373022,-0.00306509,0.00268881,0.00041332,0.00327871,0.00260139,0.00689797,0.01062755,0.02143419,0.01537117,0.03072826,0.04276060,0.04308853,0.03505308,0.02544707,0.02368230,0.01245005,0.00730240,0.02129888,0.02317753,0.03263707,0.04181456,0.05578472,0.06986626,0.07295843,0.08079254,0.07153692,0.06455135,0.06144165,0.05864587,0.05085870,0.03224426,0.02108141,0.01983644,0.00742462,0.01339366,0.00832320,0.00567238,0.00100566,0.01260867,0.00424920,0.00275906,0.01422066,0.00623560,0.01245741,0.00576530,-0.00641537,0.00468319,0.00106936,0.00470185,0.00421889,0.00608399,0.01769522,0.01373023,0.01803417,0.01646870,0.02171452,0.03493066,0.04645320,0.06207945,0.07382533,0.07746024,0.09543050,0.09615358,0.11681174,0.13516741,0.15774275,0.18106904,0.21200323,0.25800607,0.29483875,0.36567948,0.37264892,0.40603166,0.43454501,0.43854986,0.44561557,0.43968377,0.43175799,0.42144189,0.39850686,0.37200708,0.35299242,0.33588817,0.31572988,0.27886502,0.25475195,0.21192162,0.18494154,0.15966780,0.13723820,0.09789515,0.09227698,0.07946816,0.08807796,0.10900198,0.10379798,0.11647072,0.12925629,0.12627413,0.12620469,0.12630101,0.10448221,0.10273797,0.08617033,0.06025462,0.05921411,0.05930304,0.05078587,0.04693813,0.03677115,0.05990926,0.06065171,0.07226905,0.08053539,0.10975883,0.11434451,0.14596467,0.14677311,0.15194044,0.17799705,0.18083567,0.18741155,0.17825333,0.19290662,0.19505045,0.16540780,0.17318653,0.15669569,0.16154147,0.14985651,0.12681896,0.11401260,0.11905817,0.10338451,0.10336009,0.09826606,0.10849258,0.10357616,0.11480376,0.10359596,0.09455062,0.08719183,0.07896080,0.05183349,0.04253584,0.04018789,0.04432848,0.02488653,0.02389139,0.02801674,0.02571999,0.02348102,0.02733876,0.03416003,0.02436680,0.03812536,0.04905975,0.04752578,0.05997147,0.07949001,0.08888723,0.10861071,0.12855581,0.16026524,0.17029259,0.20481632,0.22434435,0.24605294,0.26447832,0.26399204,0.29068237,0.28106226,0.26261723,0.26120428,0.25104691,0.21799537,0.20363362,0.18079326,0.16787194,0.16202788,0.13790231,0.12190404,0.12676276,0.12631908,0.15352562,0.14302375,0.15996771,0.18378871,0.21121877,0.23938751,0.25443061,0.29386004,0.30569991,0.32826265,0.36415733,0.38971764,0.43047882,0.43328282,0.44008136,0.43477858,0.45715847,0.46365750,0.42786623,0.41740668,0.39812084,0.38290110,0.32677751,0.30357410,0.26888195,0.24314832,0.21101634,0.19121908,0.18462080,0.17169526,0.17781522,0.19312311,0.19438097,0.19056458,0.19381788,0.17378669,0.17795940,0.16838041,0.13379650,0.13192292,0.12151938,0.10782763,0.09223087,0.11080108,0.10965252,0.11789411,0.15264989,0.16001494,0.18220423,0.21458363,0.26236873,0.28750448,0.30594230,0.34443549,0.35359787,0.37979652,0.38898523,0.37627064,0.37636296,0.36605945,0.32599668,0.32998123,0.30250374,0.29481958,0.27510972,0.27250886,0.26158636,0.22589032,0.20973229,0.19402688,0.17995696,0.14675166,0.12222793,0.08584628,0.08916689,0.07925527,0.05768337,0.06125407,0.05662971,0.04504878,0.05074649,0.04894086,0.05357804,0.05820975,0.05152625,0.05958888,0.06621442,0.08042689,0.06915321,0.06827120,0.09395431,0.09041012,0.08635347,0.10319562,0.09562995,0.10876242,0.09539529,0.10104430,0.10548752
0.03893832,0.05332218,0.05029114,0.04451415,0.05211862,0.04279598,0.04747644,0.03837315,0.04014786,0.04014564,0.04720357,0.04173107,0.03732571,0.03633520,0.03891089,0.03295887,0.03212331,0.03759240,0.03741754,0.04302582,0.02856406,0.03990143,0.04005478,0.04274659,0.03727119,0.06220504,0.03968365,0.04766108,0.05342541,0.04374621,0.04772852,0.04219844,0.03650428,0.04914563,0.05073584,0.05029668,0.04622192,0.05179456,0.03456768,0.04241689,0.05119035,0.04982469,0.04859980,0.04977623,0.04435619,0.05314561,0.05118659,0.04566985,0.05546930,0.03990283,0.04356334,0.04694469,0.04616787,0.04539365,0.03744186,0.04827943,0.05398916,0.05058427,0.04944560,0.04153735,0.04262220,0.04697471,0.04162431,0.04141274,0.04590640,0.04832459,0.05340761,0.04725214,0.04665351,0.03872841,0.06478699,0.06482945,0.05273526,0.04176959,0.06898205,0.06267525,0.05441875,0.07168174,0.07676357,0.09902384,0.10044359,0.10623659,0.14438550,0.17565466,0.21600551,0.26426301,0.28925493,0.36050309,0.40846272,0.45026703,0.49795058,0.55984693,0.56090275,0.58006196,0.58558206,0.59457760,0.55470443,0.54805049,0.50803467,0.45606167,0.40408837,0.36821847,0.30880400,0.24310536,0.23331104,0.18332855,0.16209567,0.14094490,0.14194766,0.14849503,0.15544195,0.17997396,0.20880879,0.23486232,0.24763749,0.26104711,0.26036927,0.25033405,0.24969826,0.20374851,0.19086149,0.15039028,0.12273654,0.11082026,0.08022903,0.08526984,0.07245213,0.06244962,0.06951715,0.06321042,0.06596933,0.08410528,0.08428941,0.08266317,0.09003415,0.08051153,0.08680559,0.07551134,0.07896353,0.08893638,0.08788448,0.07945627,0.08624635,0.07277046,0.07728541,0.07965967,0.07423603,0.09234860,0.09261499,0.09523925,0.11465339,0.14152659,0.16189307,0.19299585,0.20922070,0.23962981,0.22494194,0.21549688,0.20473141,0.18241717,0.15387957,0.12085639,0.09568539,0.08228308,0.08530204,0.07506251,0.06426156,0.05955304,0.06509706,0.05604256,0.06927541,0.06702667,0.06636217,0.05934249,0.06508524,0.06349917,0.07840183,0.07989785,0.08509872,0.08535304,0.09223800,0.09074389,0.11050769,0.12267435,0.11653923,0.13778442,0.13272715,0.13509360,0.15048394,0.13954138,0.13789541,0.12326204,0.11727817,0.11897644,0.11351356,0.09137505,0.10539647,0.09280084,0.09760473,0.09881607,0.10006353,0.11131827,0.11143849,0.12631878,0.14729659,0.16691335,0.19437288,0.22503452,0.26130715,0.30268275,0.38223560,0.42403193,0.49636689,0.56144498,0.61899509,0.64664355,0.72781964,0.76414223,0.77980565,0.78056625,0.74123888,0.72500361,0.70960759,0.63209464,0.57371077,0.48753897,0.44244839,0.38218306,0.31736281,0.27975665,0.23274759,0.19867110,0.16732601,0.15419242,0.14537520,0.13816769,0.13034993,0.10788378,0.11657140,0.11891421,0.10360395,0.11913392,0.13471791,0.13124037,0.14826765,0.17958419,0.21199678,0.24066465,0.29285328,0.36825910,0.38918628,0.48758146,0.50324139,0.56494905,0.58336926,0.61625508,0.60000538,0.55332488,0.53338141,0.48241146,0.42898050,0.38168337,0.36066422,0.33159011,0.33319273,0.32068285,0.31119340,0.32099669,0.29388089,0.27910546,0.25916816,0.23702270,0.19082749,0.17178267,0.12861034,0.11435134,0.10530515,0.09807845,0.09888416,0.07846874,0.08190389,0.07926905,0.07198907,0.07420629,0.08059226,0.07358949,0.08433169,0.08373822,0.09236303,0.08392059,0.08237135,0.09908398,0.09357989,0.08913264,0.08912079,0.08737966,0.09248567,0.09881384,0.09057599,0.09153436,0.08043242
-0.00911736,-0.00081569,-0.00222505,0.00509485,0.00997311,0.00687634,0.00210706,0.01007316,-0.00088284,0.00775021,-0.00122462,-0.00631800,-0.00172806,-0.00896954,0.00340575,-0.00787239,0.00248829,-0.00626434,-0.00505321,-0.00203648,-0.00704489,-0.00516313,0.00332650,-0.00313523,0.00661375,0.01383758,0.01281455,0.01993497,0.02829934,0.02360187,0.02227815,0.01580057,0.01851370,0.02587911,0.02923529,0.04340313,0.06132835,0.08823488,0.09628062,0.11269736,0.13193586,0.13642270,0.16603630,0.14005766,0.13189231,0.11208899,0.09905093,0.06997553,0.05365441,0.04053108,0.03632115,0.03068572,0.02147730,0.02386736,0.02000462,0.01980219,0.02276384,0.01795730,0.02634955,0.02261789,0.02257382,0.01703744,0.02297651,0.02650464,0.01805728,0.01997487,0.02609563,0.01776009,0.01678250,0.02508633,0.03343520,0.03944951,0.05372391,0.06513070,0.08068272,0.08756524,0.12129985,0.14462811,0.16227311,0.15850421,0.14569863,0.14859637,0.14805269,0.14824521,0.16850736,0.19398426,0.24553245,0.26729394,0.30590274,0.34198774,0.37595421,0.39937991,0.42877212,0.45260696,0.45163531,0.45512412,0.45501664,0.44870092,0.41374937,0.39241725,0.36894034,0.33764526,0.29214357,0.26126235,0.21881157,0.18918516,0.15691358,0.13077660,0.12887059,0.10926900,0.12869351,0.13491747,0.15888275,0.17120164,0.19181192,0.19879953,0.18538807,0.18583525,0.17864995,0.14587788,0.12670935,0.11613168,0.10322984,0.08432509,0.07407569,0.06833953,0.07895203,0.06262904,0.08422684,0.10284393,0.10678852,0.11999645,0.12031502,0.15520396,0.17903335,0.18579594,0.20435836,0.22219347,0.23926273,0.27400155,0.28548761,0.29436073,0.30485223,0.31768391,0.29423961,0.28936537,0.26424651,0.25062941,0.25488692,0.22388059,0.20346731,0.22190466,0.20801392,0.22039703,0.22688133,0.22582789,0.20827651,0.20261953,0.17700692,0.16521063,0.13116120,0.11040701,0.10572754,0.07976514,0.07666178,0.07473912,0.06355130,0.07306120,0.06964619,0.07561824,0.07076801,0.07818352,0.07682646,0.07851276,0.08524239,0.09386670,0.09646391,0.10036688,0.10556466,0.10692940,0.12203178,0.10919064,0.13093559,0.13276328,0.13765672,0.14486350,0.15469414,0.14983636,0.14949298,0.16307993,0.16032850,0.15096578,0.14419218,0.14372202,0.14590346,0.13818087,0.13113592,0.12517523,0.12749187,0.12484742,0.14937316,0.13935365,0.15559410,0.17349210,0.19486608,0.22779608,0.24796882,0.26803822,0.30119633,0.35126481,0.40346410,0.43129995,0.47550667,0.52207657,0.55872407,0.60936379,0.62392911,0.64924823,0.64464249,0.63480021,0.63226111,0.58402053,0.55342755,0.52869390,0.46986668,0.41116268,0.36742738,0.32326077,0.29463070,0.27179362,0.25124227,0.22463023,0.22421857,0.22324759,0.20766472,0.20028065,0.20097663,0.19202085,0.18684896,0.18038901,0.17377691,0.17105907,0.16777362,0.17782149,0.17400664,0.18274111,0.19258748,0.23410656,0.27358056,0.31360353,0.36289772,0.39316503,0.45629242,0.49541177,0.54168870,0.56742973,0.57271349,0.58013583,0.60012738,0.58686886,0.58954410,0.54068644,0.53316740,0.52734786,0.51249816,0.49921870,0.51083655,0.46606412,0.47109596,0.43504823,0.39746888,0.36299966,0.32356823,0.26857420,0.23032574,0.19295441,0.16795124,0.14352868,0.13660822,0.12372780,0.11510840,0.11102045,0.10675797,0.11642836,0.11787361,0.11810514,0.10820095,0.12327839,0.11597641,0.11063238,0.11699928,0.13855173,0.12268326,0.13452812,0.11991876,0.13099949,0.12799810,0.12753573,0.13263553,0.11799507,0.13254371
0.06284782,0.06511044,0.06514865,0.05508898,0.06093742,0.04725298,0.05886150,0.04844421,0.06018519,0.03373596,0.04901195,0.04137733,0.03416856,0.03411912,0.03155879,0.03537750,0.03777175,0.04357045,0.03384557,0.04424363,0.04367395,0.04926858,0.04100887,0.04639637,0.04136777,0.04824435,0.06061079,0.06022789,0.05117045,0.05289983,0.05233728,0.07029520,0.05630109,0.04618014,0.05321367,0.07843349,0.08127086,0.09317515,0.12478912,0.12110476,0.14102126,0.14770412,0.14066281,0.14288515,0.13480173,0.11451180,0.10575211,0.09461110,0.07686753,0.06559284,0.05524649,0.06530303,0.05248966,0.05642386,0.04714424,0.05414992,0.04302316,0.04063243,0.04475835,0.04810376,0.04426059,0.04530289,0.04180091,0.04502410,0.05202396,0.03731567,0.04400957,0.05802710,0.05414774,0.05715137,0.06133293,0.06050774,0.07066843,0.07800571,0.09874003,0.11931952,0.14572146,0.14856997,0.16731261,0.17741272,0.18945271,0.20120504,0.21381812,0.24644801,0.29964887,0.34807840,0.40548207,0.44955116,0.48784982,0.53911031,0.55508856,0.58509418,0.56105320,0.55070092,0.53701383,0.50383108,0.46041645,0.42290829,0.37855084,0.34483979,0.30267380,0.27151507,0.24591483,0.20993107,0.18524423,0.16163944,0.14412185,0.12601342,0.12810909,0.12713002,0.12575012,0.15125035,0.16319579,0.18078608,0.20271655,0.19094287,0.20807140,0.19600236,0.18624183,0.16919127,0.14947708,0.13315548,0.12223258,0.09212035,0.08134283,0.08406967,0.08825505,0.07104787,0.08650485,0.08928984,0.10013589,0.10964029,0.11522456,0.12639342,0.13747493,0.15183111,0.17018646,0.18223277,0.21012013,0.22550301,0.23368682,0.24786785,0.23812005,0.23873218,0.23026541,0.24787194,0.21009341,0.20248263,0.19940082,0.17609221,0.17351056,0.16107881,0.14646913,0.14894698,0.12662768,0.13840971,0.13012693,0.11090500,0.10839208,0.11143447,0.10342131,0.08888048,0.09035166,0.08245064,0.07190015,0.08924509,0.07073386,0.06515187,0.07444074,0.06511196,0.07085584,0.07412165,0.09788932,0.09877693,0.09198451,0.11360188,0.12884632,0.13956224,0.17084279,0.19919301,0.22001850,0.25983946,0.29702667,0.30932219,0.33729169,0.34498693,0.37620835,0.38236993,0.37815858,0.36375861,0.36097281,0.34277787,0.31895108,0.28845823,0.26378523,0.23428114,0.20274576,0.19131323,0.17379346,0.16270970,0.16031415,0.15170123,0.14747392,0.15204013,0.16315456,0.18179970,0.20140441,0.22398728,0.24612499,0.29944231,0.29761157,0.30653214,0.36814558,0.40064383,0.44561941,0.46001278,0.48668478,0.51094774,0.50846372,0.49992484,0.49722901,0.48052011,0.44592414,0.41047538,0.38536958,0.35411105,0.30657302,0.27020051,0.24130749,0.24340660,0.19615573,0.19182127,0.19677138,0.18792463,0.17878372,0.17441681,0.16379253,0.15962300,0.15690106,0.15042211,0.13981892,0.14263346,0.12849706,0.15879706,0.13941456,0.16095176,0.17913445,0.19211671,0.24647148,0.25176081,0.30990441,0.32161900,0.37143221,0.39496304,0.42588774,0.42444595,0.43677667,0.44892727,0.44841495,0.42991688,0.42379218,0.40221857,0.39492757,0.36102873,0.36124429,0.35210854,0.32852934,0.31982098,0.32043574,0.31398723,0.28930720,0.26613635,0.23838230,0.19670572,0.16650820,0.14535592,0.12863806,0.12427630,0.12911468,0.10850973,0.10420944,0.12149427,0.12646715,0.12107758,0.13351959,0.13570518,0.14701045,0.14047528,0.14284795,0.15797471,0.15499226,0.14996818,0.16075293,0.17953683,0.18104839,0.17467542,0.18851100,0.19944329,0.17967878,0.19081529,0.17600745
0.02291101,0.01567810,0.01957210,0.01879350,0.02308929,0.01695644,0.01636891,0.02700534,0.02438949,0.02458157,0.01446231,0.00702304,0.00726099,0.00481576,0.00109826,-0.00221034,-0.00127098,0.00052883,0.00425867,0.00534875,0.00713385,0.00231639,-0.00335109,0.00719531,0.01309801,0.02896886,0.02166982,0.03634346,0.03365524,0.02163078,0.02826619,0.02756278,0.03175511,0.02679124,0.02443075,0.02764856,0.04381091,0.03899725,0.04728159,0.06283399,0.05607009,0.05551627,0.06487811,0.05843866,0.06879508,0.05338121,0.05766394,0.03835950,0.04700864,0.03562240,0.03315384,0.02919763,0.02405916,0.01245853,0.01855162,0.01779855,0.01256830,0.02082244,0.02053196,0.01679914,0.01746721,0.01412997,0.02383356,0.02295482,0.02909579,0.02893308,0.02597701,0.02440798,0.02980710,0.03260126,0.02651225,0.02756054,0.03838315,0.05274791,0.06285375,0.06660157,0.07617775,0.09066686,0.10769851,0.10067656,0.11844808,0.13675521,0.16228959,0.17575684,0.21486673,0.25898506,0.30860134,0.33314889,0.38983513,0.42691122,0.45572679,0.47585509,0.50230646,0.51273018,0.53391863,0.52391472,0.51361746,0.51518194,0.49515641,0.46518593,0.42311465,0.38569708,0.36083922,0.31517639,0.24462768,0.21224820,0.18863661,0.14974665,0.12461251,0.10380173,0.10905260,0.10541453,0.12041548,0.11326212,0.13031450,0.14323584,0.14495865,0.12985259,0.12011035,0.11062599,0.10468298,0.09314722,0.08408394,0.07534415,0.07298343,0.08136632,0.08031556,0.08443077,0.09725220,0.10928870,0.11398796,0.12529564,0.14512898,0.15123605,0.15648516,0.18620633,0.17324097,0.18738320,0.19923886,0.18938128,0.20651062,0.18000978,0.20302073,0.18507094,0.18923089,0.17618181,0.16654048,0.15685131,0.16125667,0.16309996,0.16639015,0.18594941,0.20651491,0.22574005,0.24296319,0.24447541,0.25374987,0.24575825,0.21335309,0.19370400,0.16583477,0.14460697,0.10888225,0.10224107,0.09833054,0.08891320,0.08685813,0.07986791,0.07702487,0.08616826,0.08673727,0.08924769,0.08847426,0.10032549,0.10325422,0.12273868,0.15212103,0.15418170,0.17571938,0.20722933,0.22746396,0.24952041,0.27630950,0.29636881,0.32259731,0.32878140,0.35969976,0.35414742,0.36481186,0.37082001,0.34473519,0.32186687,0.31587807,0.29249319,0.26663623,0.26097858,0.22249833,0.20464388,0.19495932,0.18435658,0.20048689,0.18831766,0.21090326,0.21908816,0.22736654,0.26719792,0.28242628,0.30448004,0.35373102,0.37837962,0.41959364,0.48147046,0.48961635,0.52870255,0.56262422,0.60341619,0.62192811,0.60673993,0.61114248,0.60542907,0.58790353,0.53646256,0.49753482,0.47264764,0.42635457,0.38351677,0.34398642,0.32157177,0.29724502,0.26058774,0.26672550,0.24290785,0.24916959,0.25706674,0.25567223,0.24375636,0.24704518,0.24357796,0.23019819,0.22521704,0.20423062,0.21232224,0.18613320,0.19152965,0.18737328,0.19129845,0.22538996,0.22614130,0.26210262,0.30576619,0.35726967,0.37230707,0.42791965,0.47197676,0.50039541,0.52781972,0.54286809,0.55794192,0.52947355,0.54924276,0.52032057,0.49955732,0.47786713,0.47379588,0.46582410,0.46718629,0.45451563,0.43281733,0.42311277,0.41957359,0.38465845,0.34700895,0.31165841,0.27113657,0.23372298,0.20561823,0.18650810,0.17854699,0.17521914,0.16486866,0.14768984,0.14870535,0.16629967,0.17941453,0.17457141,0.18048089,0.17264222,0.18982951,0.19039841,0.20225723,0.20277996,0.20384844,0.22569805,0.22548257,0.22481518,0.22888561,0.22792243,0.22576652,0.23725963,0.24022189,0.23446978
0.09400282,0.09537433,0.09969793,0.07684694,0.08975620,0.10129722,0.09033350,0.09568280,0.08833672,0.09450424,0.07156243,0.08006804,0.07925279,0.07124336,0.06933410,0.06778444,0.06028961,0.07353295,0.06798139,0.06322078,0.07160394,0.06775562,0.07591792,0.07919763,0.08881278,0.08483963,0.08220735,0.09911110,0.10893977,0.11373604,0.10209263,0.09847825,0.08930725,0.09686838,0.09910292,0.09706321,0.10784058,0.12074132,0.13849481,0.15508759,0.17918353,0.18152767,0.18057057,0.16721018,0.14639997,0.16720277,0.15051342,0.12433703,0.11031767,0.09343655,0.09488246,0.09329808,0.08255150,0.08514849,0.08041799,0.07618675,0.07984511,0.07326835,0.07552148,0.08204642,0.07425196,0.07428726,0.07777799,0.08890666,0.08081050,0.08171590,0.08400953,0.08855642,0.07881065,0.09769277,0.08095110,0.10243063,0.10564277,0.11114392,0.12718996,0.13578315,0.15928988,0.17166370,0.19804932,0.20189241,0.22118218,0.23425833,0.24828889,0.27755492,0.30798151,0.36542708,0.41067402,0.47748145,0.51842052,0.55324877,0.59666536,0.59332378,0.60885400,0.60546764,0.56944302,0.54760183,0.49776719,0.48348357,0.46250706,0.41400980,0.38965793,0.36347010,0.33299262,0.28998790,0.26185025,0.23616126,0.21878067,0.19862624,0.17806669,0.18178236,0.17841085,0.17127230,0.18401530,0.19011872,0.21773359,0.20835064,0.22731478,0.23016966,0.21166440,0.20997080,0.18292603,0.16321245,0.15414038,0.13681751,0.13686836,0.13572420,0.13057592,0.12319483,0.13381235,0.14271818,0.15432454,0.16790134,0.18894128,0.20936211,0.23078881,0.21907496,0.24968284,0.24720932,0.27677220,0.29605286,0.30947814,0.30180983,0.31575886,0.31531146,0.29611592,0.27379249,0.27528359,0.25370631,0.24195877,0.23418303,0.20119946,0.19135695,0.18243608,0.16565292,0.17037639,0.17589566,0.17095531,0.15934460,0.14861947,0.15376741,0.12986303,0.13865542,0.13165199,0.11882107,0.12179328,0.12265534,0.11028531,0.12608967,0.11612960,0.12342569,0.11693376,0.11431117,0.13254132,0.13981635,0.15408266,0.15432210,0.17169446,0.19410122,0.21695862,0.24198811,0.26851082,0.30381148,0.32948938,0.36551807,0.39965446,0.42843849,0.44904745,0.46899190,0.46320382,0.47389591,0.47354808,0.46699572,0.42952320,0.41397357,0.37116431,0.33956430,0.30162782,0.29586991,0.25830265,0.24072423,0.24528082,0.24719845,0.24585898,0.24094785,0.24992043,0.27335295,0.30833271,0.31415235,0.33783519,0.35954980,0.40262605,0.40298311,0.44048420,0.44130045,0.47407878,0.49921487,0.49576373,0.49919430,0.52418014,0.51382194,0.52643251,0.48729340,0.47238495,0.45816580,0.42236530,0.41415673,0.37298356,0.33794753,0.32027962,0.30846345,0.30762558,0.28117433,0.29343118,0.26951611,0.29508298,0.28999277,0.28258420,0.26478334,0.27874836,0.26489627,0.25927204,0.23972334,0.23033029,0.22260710,0.21899520,0.21712841,0.21805980,0.24834356,0.23905221,0.25622051,0.29324859,0.34274313,0.35017743,0.39476809,0.41397502,0.43224886,0.44589851,0.47074411,0.49827634,0.48736527,0.47172802,0.46301247,0.46141647,0.44504334,0.42121601,0.40982326,0.37990732,0.37882093,0.36436267,0.34069193,0.33874883,0.31949954,0.29283551,0.26689013,0.25820065,0.22533911,0.20525201,0.19224297,0.17895694,0.17560107,0.16475684,0.17671651,0.17753534,0.19122213,0.18188886,0.17782166,0.17583288,0.19881194,0.19764379,0.20219017,0.22132593,0.21164584,0.22713727,0.24366971,0.25306864,0.23441768,0.24398834,0.24793009,0.26258303,0.26782666,0.27091623
0.03585582,0.04472958,0.02660245,0.03180867,0.03482584,0.03260021,0.01908544,0.02131334,0.02276859,0.02136848,0.01319816,0.01061157,0.01149276,0.01879573,0.00131273,0.00739080,0.00183790,0.00864986,-0.00399827,0.01143034,-0.00239632,0.01440913,0.00910744,0.01882538,0.02200330,0.02399083,0.03326077,0.03234763,0.02999255,0.03403725,0.02320079,0.03143604,0.02714237,0.03722580,0.03115848,0.04949183,0.07446036,0.09203498,0.10619682,0.10834633,0.13287351,0.13834767,0.14433434,0.13497070,0.12786276,0.10797873,0.09215222,0.06426425,0.05578380,0.02885679,0.02468799,0.01746338,0.01333946,0.01773758,0.00639065,0.00971683,0.01571634,0.01232459,0.01865713,0.01837634,0.01308847,0.01259200,0.02063601,0.01735030,0.01578652,0.02151622,0.01109370,0.01626125,0.01821379,0.01558583,0.01667595,0.02535033,0.04465777,0.06211502,0.07852396,0.10351285,0.13728334,0.14448935,0.15502456,0.16278309,0.17450167,0.18027910,0.19807976,0.25154158,0.26053738,0.31161419,0.37615787,0.40072634,0.43544805,0.45583878,0.50165752,0.48422082,0.46080738,0.47186341,0.44822235,0.41081473,0.37997871,0.34659047,0.32884658,0.28136671,0.26710232,0.24995355,0.21786084,0.17778107,0.15921429,0.13632811,0.11046335,0.08728721,0.08810417,0.06935860,0.08076496,0.07901507,0.09458321,0.09887124,0.11625988,0.11575251,0.10249691,0.11421727,0.09962857,0.07688238,0.07657964,0.06264448,0.06220638,0.04968976,0.02749893,0.04890292,0.05275956,0.05584362,0.05305049,0.05756304,0.08044256,0.08587891,0.12180795,0.13043708,0.14669616,0.16926850,0.17702865,0.19427280,0.22350132,0.23189462,0.25017231,0.27073115,0.25526074,0.27640778,0.25001228,0.25358576,0.23526131,0.19099246,0.17383872,0.15941849,0.13357822,0.12888854,0.12880549,0.11110157,0.10806956,0.10264853,0.09652873,0.08627748,0.07225476,0.07401278,0.05991891,0.05483067,0.04134390,0.03078233,0.04672587,0.03087356,0.02898343,0.03675789,0.03013783,0.03264513,0.03463167,0.04613810,0.06280672,0.06538753,0.07706229,0.09045514,0.09772018,0.13444269,0.16806961,0.20127749,0.22430968,0.25921414,0.30108336,0.34017134,0.37470052,0.38789014,0.40688643,0.39022337,0.40696581,0.41177592,0.39438096,0.34429168,0.30786174,0.28497131,0.26550727,0.22867065,0.19902717,0.19137858,0.15870174,0.13256826,0.13144221,0.13256816,0.14258307,0.13907074,0.14947871,0.16190190,0.19165486,0.20455351,0.22744309,0.24413212,0.26531954,0.28390284,0.31481656,0.32669035,0.33742973,0.34876746,0.36033896,0.34967117,0.36673142,0.34027828,0.32907926,0.30934023,0.30181205,0.26266769,0.24313965,0.20387563,0.18347819,0.17651422,0.16803278,0.16229294,0.15803580,0.15481349,0.15550798,0.15158402,0.15474857,0.17011051,0.15453959,0.14974613,0.15241985,0.12915398,0.12270478,0.10986536,0.08963258,0.09316425,0.10001753,0.10337475,0.10028031,0.11982834,0.15154012,0.16676792,0.19016085,0.21179085,0.25429945,0.26146122,0.29907436,0.33644740,0.35823415,0.36249603,0.37932498,0.40290247,0.37952404,0.39063961,0.37432750,0.36415525,0.34842349,0.32524331,0.32024246,0.31744614,0.30692549,0.27598774,0.24685453,0.22162461,0.18858479,0.16252395,0.12601447,0.11233076,0.08884510,0.08020681,0.06620209,0.07395806,0.06067796,0.07392132,0.06545878,0.07213007,0.08969086,0.08325491,0.08993524,0.10902474,0.10237571,0.10733173,0.12366443,0.13263886,0.13879099,0.14161667,0.13871897,0.16322373,0.15653877,0.15659919,0.16436894,0.15571644,0.17010488
0.01985177,0.01828946,0.02262873,0.01202286,0.01597512,0.02390802,0.00753497,0.01227450,0.02131445,0.01535350,0.01221307,0.01292963,0.00762070,0.01173509,0.01599605,0.00691262,0.00934986,0.01305194,0.01560484,0.01120787,0.00378271,0.01317280,0.01051084,0.00697398,0.01818979,0.00846672,0.01006138,0.01692239,0.01597216,0.03081951,0.02042721,0.02751993,0.02934895,0.02227716,0.03463803,0.05222095,0.06144374,0.06638385,0.08235751,0.09420578,0.10083163,0.11656670,0.13055828,0.11777053,0.11092702,0.10420479,0.08057396,0.07388723,0.06447549,0.04112106,0.02957317,0.02462019,0.02236223,0.02438444,0.02208891,0.03083767,0.01804027,0.00966438,0.01302969,0.01889719,0.01897250,0.00679897,0.01880332,0.01992492,0.01908117,0.02692702,0.02264057,0.01554039,0.02844925,0.01585749,0.02839935,0.02630730,0.03852689,0.05236269,0.04916115,0.07981832,0.11007028,0.12026710,0.13116132,0.13224295,0.12603642,0.13787902,0.14725032,0.15769896,0.19337889,0.20486190,0.23963198,0.28181884,0.32785019,0.36105033,0.38619240,0.41662026,0.41112709,0.43461018,0.41138072,0.40324631,0.37432096,0.33371391,0.32023596,0.28003447,0.25692081,0.20889835,0.18018108,0.14421817,0.13614126,0.10314856,0.08421323,0.07675202,0.06870256,0.07987927,0.09111826,0.09686991,0.11374300,0.11744502,0.13231984,0.16055192,0.16476371,0.15250846,0.15625844,0.13629861,0.12156221,0.09675024,0.08430737,0.06782524,0.05890966,0.04674552,0.04631281,0.04818442,0.05119318,0.05228700,0.06356480,0.05340292,0.07079439,0.06873240,0.07957870,0.08392137,0.09931045,0.13144010,0.13341642,0.16117464,0.17008747,0.19582878,0.19825551,0.20693095,0.20050150,0.21240735,0.21433093,0.17972007,0.16844084,0.16821953,0.14028046,0.13970856,0.13060425,0.13598405,0.12190829,0.13004240,0.12765166,0.12158545,0.10404089,0.09959013,0.08364169,0.06575572,0.06035556,0.05522690,0.05084167,0.04080250,0.04505732,0.04103235,0.04272761,0.04079347,0.03550601,0.04827825,0.03806361,0.04674624,0.06242509,0.05232207,0.06647899,0.07704303,0.08854436,0.10275439,0.11854401,0.12444123,0.14832427,0.18126424,0.17753393,0.21278625,0.20086169,0.20373220,0.21743408,0.21546829,0.20769250,0.19971983,0.19989536,0.17482466,0.16393829,0.14152323,0.12381678,0.11679166,0.10531864,0.09429993,0.09052084,0.08071914,0.08104124,0.08341952,0.09320054,0.09907116,0.12295503,0.13095792,0.16451227,0.17847109,0.20567214,0.25247916,0.26782513,0.31177643,0.33191041,0.38310833,0.40950048,0.45222340,0.44836980,0.43218326,0.44980975,0.44701142,0.41971872,0.38419572,0.33596185,0.31028033,0.28225236,0.24595036,0.22379010,0.17277079,0.16125928,0.13919957,0.13281582,0.11397609,0.11496184,0.10660506,0.08345451,0.08503540,0.09718867,0.07947201,0.08454016,0.08444362,0.07764149,0.07280547,0.09139292,0.11073128,0.11905808,0.13369366,0.16365396,0.20665078,0.24050678,0.26346362,0.30820602,0.33121832,0.36046710,0.37491141,0.40161202,0.40192530,0.38941231,0.39221192,0.37237131,0.37151284,0.37052940,0.33265335,0.33589422,0.34361252,0.32579845,0.32990628,0.32031216,0.29844377,0.27983509,0.25318141,0.23248638,0.19657462,0.16054653,0.13854030,0.10824476,0.09235925,0.09396639,0.06521337,0.05852345,0.05179916,0.06112242,0.06685255,0.07235474,0.07084651,0.06602932,0.07564352,0.08139400,0.09419778,0.09711778,0.09653007,0.09230543,0.09887612,0.09314019,0.10542487,0.08489295,0.10821486,0.09985189,0.11285989,0.10227118
-0.00301138,-0.01109399,-0.01513744,-0.00733665,-0.00067662,0.00273203,-0.00268745,-0.00281632,-0.00164681,-0.01211382,-0.01661643,-0.01212721,-0.02918341,-0.02900114,-0.03919801,-0.03274829,-0.04768849,-0.03028622,-0.03265523,-0.02975792,-0.02242025,-0.02462961,-0.03559952,-0.03441298,-0.01768465,-0.01843447,-0.00519078,0.00165442,0.01525584,0.01575103,0.01042904,-0.00352133,-0.01058304,-0.00183943,-0.01012273,-0.00577970,-0.00007651,0.01340164,0.02879053,0.04037885,0.05166820,0.06200388,0.05610962,0.05721984,0.05717999,0.05477490,0.03541739,0.02975839,0.00724515,0.00177207,-0.01342783,-0.02291965,-0.01381846,-0.02646795,-0.03513872,-0.03367565,-0.03032424,-0.02993344,-0.02755573,-0.03361481,-0.02812888,-0.03161944,-0.03425715,-0.03366085,-0.02259778,-0.02362231,-0.02581045,-0.02977466,-0.03087647,-0.02507140,-0.02608426,-0.02184293,-0.02464630,0.00453553,0.00647269,0.02061037,0.04323643,0.06643581,0.07350201,0.07228891,0.08827468,0.08755700,0.09392294,0.11840550,0.14102071,0.17494790,0.21413356,0.28275361,0.29869066,0.34708263,0.35718345,0.39657752,0.40510345,0.39558746,0.39317624,0.36995121,0.35771412,0.34205232,0.32687658,0.30971416,0.29639056,0.26392801,0.25265720,0.22016904,0.20709810,0.18750820,0.14080941,0.11271272,0.08650475,0.07384636,0.06422975,0.06627306,0.07393141,0.08570847,0.10388314,0.12178667,0.12032120,0.12819347,0.12324656,0.09767168,0.08911292,0.06463136,0.04557985,0.03851575,0.02390965,0.01390806,0.01602692,0.02250564,0.03219190,0.03822299,0.06188018,0.07003281,0.08955072,0.11659108,0.12717084,0.15259823,0.17258329,0.18505686,0.17816987,0.18056089,0.18937357,0.21729521,0.19889919,0.19814359,0.20027266,0.17521882,0.16975126,0.14821288,0.12047406,0.10509824,0.08943517,0.07404802,0.05647360,0.05407637,0.04551142,0.03964460,0.02740756,0.02022605,0.01270805,0.01736918,0.00510239,-0.00313249,-0.00473383,0.00139743,-0.00082722,-0.00298170,-0.00891053,-0.00878416,-0.01343621,-0.00576367,-0.01902453,0.01194902,-0.00261847,-0.00060665,0.00604349,0.02330187,0.01275520,0.02503339,0.05145338,0.05290634,0.07797704,0.09002995,0.12649186,0.14552635,0.15307507,0.19126512,0.19279523,0.21829845,0.21646469,0.19739266,0.19610603,0.20281188,0.19782174,0.18069409,0.16658662,0.14855681,0.12337818,0.11196537,0.10127047,0.08694316,0.10373607,0.09544587,0.11081040,0.12075307,0.14179891,0.17085006,0.19596978,0.22452215,0.23967937,0.26303596,0.27537832,0.34251632,0.33365946,0.35557138,0.38094494,0.40652916,0.39894096,0.40552967,0.40080103,0.39010498,0.39528576,0.36636749,0.36593196,0.32887637,0.29882772,0.26937806,0.26119040,0.22733701,0.20706911,0.18552678,0.18532392,0.18083476,0.19162715,0.17910782,0.19064526,0.19633470,0.19065905,0.18979526,0.18309083,0.18462776,0.15972505,0.13305467,0.12786545,0.10857677,0.08942562,0.07565693,0.08277278,0.10181694,0.11137187,0.13518180,0.13362856,0.17527663,0.20255020,0.24152846,0.26747056,0.29287928,0.31094098,0.32925691,0.35057509,0.35173499,0.34904104,0.34692476,0.34439502,0.31609043,0.29078340,0.26970711,0.24249934,0.22456752,0.21450304,0.19497389,0.16465483,0.16423125,0.13770444,0.11549838,0.10392640,0.07701646,0.06071238,0.03580183,0.02930056,0.02390247,0.01993500,0.01608868,0.01030407,0.02613861,0.01814829,0.02084681,0.01114546,0.02553215,0.03263891,0.03213384,0.04573977,0.04316584,0.05205345,0.05721785,0.05545135,0.05744011,0.07219882,0.07084998,0.07087363,0.07617692,0.06678298
0.05944032,0.06961460,0.06714855,0.07040375,0.06694506,0.08044985,0.08322020,0.07503721,0.08120358,0.06494365,0.05591078,0.05396117,0.04255445,0.04085313,0.02426613,0.02857309,0.02971897,0.02844329,0.02936313,0.03679975,0.02722204,0.02920127,0.04070987,0.04219396,0.05623641,0.06113204,0.08585713,0.10531798,0.08661319,0.09275836,0.08756645,0.06640058,0.06822842,0.05460113,0.04548508,0.04237386,0.05335946,0.05552379,0.05955785,0.06534456,0.07590698,0.08234093,0.07736288,0.07293412,0.07902661,0.06098274,0.06823318,0.05903684,0.04599872,0.05248292,0.03387928,0.03724099,0.03247436,0.02953615,0.02771451,0.04026328,0.03291932,0.03285931,0.03665361,0.02948990,0.03603431,0.03840585,0.03505394,0.04027067,0.03527137,0.03117961,0.03910343,0.03575844,0.03548754,0.03208524,0.05100787,0.03171756,0.04605385,0.04865404,0.06298801,0.07440501,0.07583218,0.09535589,0.10274795,0.12005901,0.12054737,0.14031213,0.15739486,0.18273394,0.23324692,0.28185515,0.32596628,0.36134614,0.37352205,0.42192371,0.46250746,0.48450405,0.49319658,0.50072701,0.50683090,0.48698697,0.50089785,0.49519975,0.48640679,0.51209571,0.50335023,0.46775618,0.45267207,0.41623772,0.35750304,0.30946257,0.26483512,0.21623313,0.18032276,0.15404890,0.14365411,0.13174554,0.13756003,0.13010144,0.14310471,0.15558367,0.14730612,0.13130211,0.14365018,0.12727307,0.10646209,0.10489581,0.09182139,0.09529628,0.08262440,0.09185244,0.09482448,0.11090855,0.13354834,0.13407676,0.17873493,0.19257078,0.22307886,0.26032295,0.26781567,0.27825366,0.29616873,0.30037681,0.29156097,0.28497021,0.27122802,0.24198313,0.22260594,0.20738102,0.19225846,0.16927210,0.15173866,0.14861215,0.14550857,0.13660754,0.12244613,0.12803792,0.13676897,0.12725501,0.13886239,0.13814453,0.13752735,0.13469326,0.14159810,0.11591339,0.10320643,0.09032090,0.06957384,0.07875801,0.06523525,0.04563463,0.06211431,0.06377561,0.05336945,0.05850171,0.05935318,0.07305812,0.06628497,0.07761369,0.09151637,0.10024273,0.10308930,0.12172191,0.14648866,0.17662091,0.18770620,0.21350560,0.24655793,0.26123040,0.29838575,0.31468853,0.34761505,0.35417866,0.35472298,0.34488943,0.34640177,0.32712913,0.29816584,0.27619983,0.26588884,0.23456713,0.23061370,0.21480473,0.20798604,0.20112905,0.20884613,0.23925724,0.24981623,0.27231006,0.31786790,0.34574265,0.37303577,0.41150855,0.45061084,0.50118026,0.50605382,0.53793630,0.54240895,0.56038843,0.56663454,0.58562490,0.56910912,0.55299552,0.54281786,0.51427782,0.49023831,0.45646659,0.42337974,0.38335499,0.33674378,0.33479073,0.29046974,0.28335176,0.27798522,0.27869129,0.28290446,0.30268391,0.30184219,0.32941203,0.36123567,0.34018104,0.36123278,0.34249652,0.32140741,0.29307277,0.28379917,0.24490199,0.20905552,0.19770232,0.17901426,0.16785186,0.16201633,0.16927534,0.19311788,0.21099619,0.23137752,0.27641022,0.31877091,0.36256541,0.39707161,0.40787855,0.44857558,0.46236255,0.46342985,0.46370199,0.46565906,0.42383293,0.39190184,0.38168322,0.33444009,0.32782098,0.30444525,0.28004525,0.27861382,0.23795750,0.23003368,0.20008129,0.17884912,0.16436588,0.12614001,0.11035616,0.09439740,0.08392338,0.08385636,0.07664277,0.08672326,0.07480848,0.07650918,0.09017401,0.09467107,0.09103051,0.10580765,0.09567931,0.11958460,0.11157353,0.11912974,0.13123923,0.13412776,0.13620344,0.13889225,0.15846131,0.15004267,0.15455072,0.15291449,0.15059173,0.14839757
-0.00462994,0.00849655,0.01000327,0.02348380,0.01958029,0.02121119,0.02829482,0.02083691,0.02496506,0.01318833,-0.01018679,-0.00060324,-0.02230291,-0.02474808,-0.03141329,-0.01974095,-0.02377267,-0.02658179,-0.02413267,-0.02824939,-0.03048373,-0.02392580,-0.02080193,-0.00990742,0.00572249,0.02307163,0.03387500,0.04142085,0.05179370,0.05503067,0.02852157,0.01607224,0.01752698,0.01508393,0.02497643,0.02380945,0.04691660,0.09077558,0.10887856,0.13129366,0.15097703,0.18339571,0.17303477,0.16529660,0.13809466,0.12346274,0.08804403,0.06683792,0.03076289,0.02299218,0.00869265,-0.01582991,-0.01465023,-0.01823215,-0.01907895,-0.01881559,-0.02271546,-0.03033614,-0.02522652,-0.03000918,-0.02987799,-0.02789911,-0.03008378,-0.03848500,-0.02529234,-0.01797606,-0.02975490,-0.03077640,-0.02718806,-0.02132279,-0.00593871,-0.01243048,0.00451079,0.02148368,0.05579939,0.07688444,0.11250577,0.14165058,0.13861604,0.13809646,0.12108497,0.09526923,0.06744771,0.04033609,0.03738910,0.05037180,0.05507190,0.05178593,0.07511697,0.07800045,0.09865954,0.09837350,0.12555954,0.14110493,0.15635088,0.17153296,0.21909861,0.25012683,0.27030413,0.31321707,0.32138192,0.34026134,0.33110475,0.30244607,0.26814377,0.21510636,0.16844524,0.12553981,0.09909509,0.06427165,0.04510704,0.02924759,0.01105451,0.01803295,0.00760161,0.00413905,0.00150220,0.00650175,0.00846053,0.00480429,0.00521142,0.00361982,0.00201425,0.00087883,0.00980344,0.01267286,0.03125157,0.04273063,0.06328126,0.09736863,0.11484927,0.15954281,0.19717138,0.22188665,0.25881269,0.29603863,0.31122343,0.34366362,0.36310289,0.39403387,0.41218972,0.38117983,0.40049974,0.39134023,0.37013654,0.34676809,0.30757317,0.28098946,0.23629614,0.20555578,0.16322730,0.13516875,0.11193127,0.09566063,0.09073930,0.06046330,0.06460795,0.05002781,0.03623454,0.03478294,0.01204445,0.00527056,0.00114055,-0.00291267,-0.00965228,-0.00961997,-0.01191559,-0.00673782,-0.01193086,-0.01642279,-0.00349023,-0.00397711,-0.01699886,-0.01424402,-0.00752565,-0.01134951,-0.00342881,0.00673106,0.00606843,0.01403245,0.01259475,0.02357476,0.03339076,0.03410536,0.04196136,0.05283351,0.05148982,0.04717090,0.05545611,0.06427702,0.04968159,0.04564464,0.04469628,0.04986161,0.05128722,0.04792081,0.06709294,0.06097799,0.08313176,0.08905210,0.11950048,0.13983881,0.15248722,0.20141349,0.23458367,0.26861749,0.31107464,0.32386609,0.35837136,0.37678111,0.39122770,0.36925950,0.39985319,0.38600872,0.36480166,0.34789015,0.31318397,0.29610221,0.27416444,0.23173890,0.22003649,0.18212799,0.16083626,0.14599003,0.12871392,0.13472615,0.10940569,0.13090193,0.13691534,0.14972999,0.18433604,0.21036739,0.21776321,0.26093717,0.28006255,0.28401431,0.29381051,0.27988109,0.24597181,0.23563988,0.21182119,0.18264985,0.14030464,0.10805170,0.09015870,0.07244098,0.05397516,0.05929471,0.05580538,0.06594177,0.07338029,0.09224189,0.13270989,0.16429807,0.22262005,0.25510434,0.31116554,0.37034840,0.42580236,0.45484002,0.50843134,0.49070956,0.49517478,0.46729924,0.44458567,0.42056584,0.40379931,0.36260365,0.35101124,0.34064010,0.30712454,0.25826066,0.21415552,0.17280153,0.13007323,0.10040229,0.06010354,0.03593753,0.01660728,0.02678435,0.00689391,-0.00564038,-0.00286051,0.00051648,0.00450176,-0.00078119,-0.00299396,0.00069634,0.01016509,0.00645556,0.00373443,-0.00039825,0.01110692,0.01282824,0.00722681,0.01466339,0.01121072,0.01493703,0.01615310,0.01020054,0.01394839
-0.02874572,-0.02759449,-0.01776500,-0.00817324,-0.00921877,0.00045451,-0.00534202,-0.00584763,0.00087507,-0.01128744,-0.01137651,-0.00819573,-0.01353756,-0.03056115,-0.03428180,-0.03290428,-0.02833946,-0.03807642,-0.03040531,-0.02737532,-0.01464817,-0.02267833,-0.02616803,-0.02328086,-0.00922957,-0.00356827,0.02149849,0.02263875,0.02107799,0.02105563,0.00872324,0.00776716,-0.00168681,-0.00225205,-0.00793906,0.00397456,0.00271400,0.02191996,0.03437228,0.04651391,0.06913831,0.07239581,0.06130795,0.06930631,0.06416604,0.04964447,0.04105036,0.03338718,0.01726028,0.01975495,0.00646797,-0.00243330,-0.01183720,-0.01268257,-0.00852757,-0.00891418,-0.01228583,-0.01199438,-0.00004259,-0.01267584,-0.00959777,-0.00751241,-0.00720655,-0.01294910,-0.01669319,-0.00495636,-0.00345267,-0.00521611,-0.01206979,-0.00124697,-0.00065697,0.01290144,0.01686832,0.02266648,0.02818428,0.05444237,0.06604678,0.08595570,0.08646112,0.08786945,0.09061377,0.08780367,0.10081133,0.11412415,0.13841215,0.17078788,0.19340406,0.24276836,0.27411971,0.30940398,0.35464683,0.35408827,0.38310522,0.38885605,0.39219108,0.37549988,0.38381459,0.38341892,0.36022953,0.35311073,0.34182816,0.32532231,0.28916188,0.26472696,0.22872006,0.19594015,0.15921685,0.13585240,0.12763407,0.12196938,0.11079662,0.12407707,0.14414465,0.17332661,0.18155919,0.19605894,0.19735710,0.19407706,0.17123203,0.16323705,0.14142583,0.10853588,0.08653620,0.06663171,0.07236852,0.05867593,0.06147152,0.06029471,0.06977643,0.08278278,0.10486501,0.13476297,0.12874393,0.16351827,0.18866620,0.20198183,0.21355397,0.22331761,0.23335210,0.22657098,0.23310620,0.24552556,0.22656826,0.22013252,0.22853709,0.18907013,0.18444412,0.17766673,0.17438753,0.14354517,0.11647949,0.12198056,0.11678421,0.11354315,0.10471426,0.11201803,0.10424532,0.09295776,0.09475444,0.09401439,0.06144831,0.05654675,0.05959704,0.04590902,0.04566834,0.03648652,0.03931749,0.03949957,0.03811929,0.04313715,0.04394182,0.04181967,0.05295836,0.04889947,0.05898463,0.04124851,0.04676445,0.06634743,0.06275729,0.06571338,0.06879119,0.08387960,0.09345269,0.09647085,0.08706902,0.09585911,0.11313146,0.09649796,0.10675698,0.12063954,0.11225559,0.10835551,0.10351755,0.09591870,0.09827639,0.09365620,0.10980172,0.10762107,0.11940054,0.13179016,0.13790154,0.15271197,0.17112862,0.20114169,0.21668983,0.24412866,0.28043996,0.30816532,0.33599413,0.38368955,0.41191059,0.44216501,0.47027832,0.51784229,0.54025566,0.55961324,0.58392239,0.61378044,0.58449110,0.57938507,0.58691606,0.55145855,0.52998116,0.48414503,0.43689754,0.39986916,0.37225774,0.33357040,0.29821039,0.28886580,0.27696786,0.25462044,0.25795469,0.25697920,0.26970586,0.26550469,0.27167826,0.25737609,0.25220879,0.23185005,0.19404451,0.19755468,0.18840800,0.17203634,0.17441817,0.17872475,0.18896721,0.20651539,0.23914490,0.27408259,0.29831167,0.36172258,0.38397527,0.41788099,0.43896915,0.46391616,0.48366569,0.49183039,0.49632189,0.48910585,0.48378324,0.45347234,0.43296013,0.37978684,0.36452212,0.36027457,0.31593452,0.32866414,0.29448667,0.27845936,0.25433764,0.25201418,0.23166854,0.20599600,0.15989114,0.14537239,0.12617320,0.11650521,0.10455082,0.08919746,0.10014889,0.08164875,0.09553818,0.09433630,0.09350797,0.09641666,0.09004476,0.08653626,0.09719776,0.09348870,0.09146738,0.10797338,0.09568166,0.09820883,0.09433027,0.10254046,0.09532235,0.10369205,0.10917360,0.09882689,0.10731874
0.00325592,0.00027408,0.00112722,0.00269931,0.00390374,0.02216783,0.02086985,0.01078096,0.01900287,0.01438335,0.00781840,0.00768254,0.00272060,0.00739372,-0.00565165,0.00518399,-0.00649147,-0.00720939,-0.00724439,-0.01185288,-0.00190058,0.00105687,0.00278664,0.01078143,0.00953426,0.01415741,0.02574057,0.02652870,0.02559513,0.03206464,0.02816532,0.02843819,0.02455905,0.01658571,0.02587190,0.01550590,0.01610416,0.02706007,0.03912640,0.05945558,0.07149658,0.07034090,0.07833782,0.07493465,0.07378539,0.06035892,0.06383640,0.05761479,0.03778187,0.04066068,0.01667463,0.01456796,0.01483220,0.01439537,0.01155180,0.01225876,0.00884666,0.01722439,0.01236511,0.01168208,0.01219047,0.02002561,0.02246572,0.01825235,0.02622009,0.01290853,0.01218350,0.01154832,0.00843013,0.01831839,0.02229522,0.02672449,0.02870536,0.02918928,0.03932735,0.04983937,0.07514750,0.08021383,0.09190600,0.09553974,0.10594054,0.11865486,0.12692188,0.14250839,0.16537040,0.19837720,0.23847457,0.27326224,0.29512918,0.36935097,0.39776266,0.43223403,0.44681648,0.47829361,0.49115306,0.47381866,0.47989723,0.47798103,0.47342599,0.42709632,0.41430448,0.38603293,0.34195131,0.29200609,0.27398207,0.23061861,0.18448201,0.16432851,0.13376603,0.13620312,0.12643287,0.13083750,0.15310893,0.15548064,0.18543535,0.18531681,0.21503093,0.21038465,0.18705095,0.17152096,0.15386362,0.12981989,0.11476074,0.10797677,0.09133761,0.07309178,0.06594390,0.07900839,0.07338581,0.06776843,0.09620745,0.10257296,0.11329401,0.13600557,0.15028803,0.14822534,0.16466713,0.16147646,0.17998200,0.18307816,0.19066004,0.19726130,0.20288158,0.19145276,0.20926779,0.18834126,0.16978761,0.16528732,0.15239431,0.16013372,0.15186297,0.15110438,0.13903881,0.16920079,0.17333659,0.18464132,0.19138059,0.18163755,0.16856619,0.15754868,0.13866321,0.12405442,0.11555439,0.09222839,0.06986439,0.07411045,0.06125355,0.05618326,0.06012581,0.06348915,0.05823246,0.06454495,0.07412287,0.06635475,0.07797708,0.07505966,0.08273267,0.08232348,0.09348957,0.09598984,0.10574916,0.11989263,0.12309838,0.14198976,0.14357623,0.15605315,0.16679426,0.18254474,0.17787446,0.17937695,0.17822552,0.17820986,0.16996502,0.16351531,0.15473392,0.15134540,0.12754114,0.13947844,0.13465195,0.12502948,0.13533372,0.13199392,0.14538053,0.16961504,0.17318858,0.18900832,0.21434089,0.26074344,0.29889557,0.33890826,0.35612195,0.39950171,0.44477315,0.47924583,0.50518045,0.57294301,0.59852857,0.63218383,0.66612327,0.63985720,0.65199615,0.62203466,0.62408437,0.57647610,0.55319130,0.47808123,0.42747103,0.39306196,0.34231902,0.30466435,0.28483720,0.26504470,0.24182813,0.24136218,0.23514965,0.22857725,0.23132242,0.23152635,0.21319232,0.21189533,0.18288112,0.16938947,0.18019312,0.17227098,0.15839398,0.17671857,0.18392480,0.18541467,0.23081527,0.25905805,0.29930526,0.36349173,0.39142387,0.46227558,0.48513106,0.50861700,0.54413170,0.55682244,0.56084903,0.54093845,0.52185900,0.48213862,0.45758852,0.44396712,0.42557565,0.39323407,0.38291776,0.37537330,0.37167887,0.36465229,0.35116170,0.31218648,0.29182220,0.25144296,0.21677211,0.19207724,0.16301364,0.14977595,0.12433058,0.10997856,0.10802993,0.11804487,0.11151842,0.10959281,0.10714220,0.10648617,0.12434031,0.12505590,0.11293407,0.11819080,0.12131964,0.12521311,0.11350196,0.12633368,0.12791625,0.12886579,0.13099241,0.14415776,0.14030558,0.14707036,0.14229129
0.06361242,0.07080769,0.07104069,0.06261429,0.05350648,0.05334819,0.05369838,0.06020430,0.04648634,0.04913550,0.05581376,0.05379030,0.04915869,0.05983861,0.05564944,0.04879241,0.04367092,0.05438066,0.05432826,0.05371779,0.06342254,0.04982014,0.06371401,0.05687700,0.06270554,0.06931807,0.05773058,0.05913480,0.05744910,0.06912528,0.05111345,0.07371849,0.06095678,0.06829251,0.06529868,0.07681179,0.08259771,0.07952555,0.08892312,0.10065590,0.10863717,0.11489698,0.10835923,0.11642432,0.11087390,0.09377674,0.09416416,0.08661786,0.06631763,0.07583915,0.07780714,0.07597857,0.06712481,0.06836381,0.06288576,0.06891319,0.06270840,0.06587718,0.06689973,0.06830761,0.06715745,0.07353837,0.07998196,0.06934800,0.07105651,0.07303962,0.07259765,0.07276349,0.06594928,0.06754547,0.07575730,0.07823166,0.07027607,0.08922527,0.08715191,0.10396722,0.11337070,0.13424899,0.13202848,0.15320495,0.16584808,0.18654668,0.18365534,0.22477791,0.26821574,0.29990027,0.36341857,0.41229732,0.44550624,0.47424691,0.51975901,0.56341013,0.57154858,0.57830640,0.60251656,0.59066222,0.58381763,0.57687366,0.55755446,0.51105371,0.44545093,0.41620956,0.35336383,0.30369840,0.23902350,0.20289889,0.17492432,0.15500160,0.14344696,0.12642757,0.11562191,0.14131770,0.14127278,0.14219535,0.16252918,0.15584289,0.17468358,0.17400452,0.15496025,0.15502914,0.12611849,0.12559745,0.10648938,0.11515067,0.10220068,0.10217438,0.08166087,0.08960030,0.09685023,0.09889731,0.09678114,0.08865135,0.10185649,0.10597568,0.11346866,0.10586096,0.12935848,0.11674670,0.14576008,0.14871782,0.15465374,0.16455118,0.18283359,0.16978812,0.17725067,0.16986500,0.15973023,0.16312741,0.16758502,0.18073467,0.19256879,0.22680389,0.24800794,0.29163492,0.31361259,0.32772554,0.31751878,0.30950519,0.29220594,0.24567783,0.21595725,0.18400662,0.15704558,0.14349167,0.11365604,0.11465163,0.10633837,0.09480093,0.10688669,0.10848649,0.10010972,0.10308046,0.11823434,0.11814850,0.12786935,0.14174995,0.15959027,0.17298355,0.18546247,0.20007137,0.24741340,0.28090058,0.30432098,0.31662764,0.35697882,0.35699988,0.39959045,0.41320933,0.41800042,0.40039709,0.39129879,0.39670710,0.35950995,0.31628333,0.31522587,0.26686320,0.23072783,0.21676066,0.20609341,0.18102541,0.16490119,0.16216554,0.16562502,0.15789822,0.16814235,0.16780230,0.19693973,0.21665769,0.24710382,0.29132417,0.32161282,0.39492923,0.45083439,0.49087192,0.51895350,0.59419203,0.61860157,0.65283784,0.63957467,0.64252214,0.60780958,0.60019615,0.57944792,0.51438318,0.45158575,0.41029153,0.36084746,0.32563740,0.27794495,0.23791277,0.21118818,0.17808532,0.17019015,0.16337985,0.15620431,0.14561265,0.13386210,0.13395644,0.13475234,0.13099041,0.13172502,0.13878859,0.13169279,0.14107593,0.14382485,0.15671121,0.18256174,0.20117014,0.24120438,0.27544224,0.32374199,0.37941153,0.43316008,0.48812691,0.51714726,0.55459109,0.54696512,0.55986529,0.53528655,0.50090999,0.50262707,0.47216390,0.46891773,0.43502532,0.45488961,0.46134056,0.44430417,0.47024945,0.46477090,0.45509383,0.43611482,0.37758908,0.33405006,0.30284924,0.25367876,0.20261838,0.18405994,0.16286790,0.15626598,0.14280093,0.14252559,0.13288141,0.13663343,0.13900387,0.15180676,0.14505898,0.15650139,0.15710061,0.16594718,0.17106668,0.18455514,0.18452857,0.18358695,0.18848299,0.20272163,0.20395712,0.20399719,0.21182236,0.21272175,0.20150337,0.21592595
-0.01968418,-0.00572561,-0.01337002,-0.00537580,0.00073089,0.00372083,0.00630489,0.00282817,-0.00624194,-0.00298482,-0.00427067,-0.01198674,-0.01686978,-0.02659167,-0.01590728,-0.01731338,-0.02013088,-0.02292487,-0.02017530,-0.02086406,-0.01956359,-0.02681600,-0.01373416,-0.01292996,-0.00691808,-0.00347028,0.00890270,0.01770766,0.01556037,0.01081692,0.00809193,0.00707716,0.00951582,-0.00778057,-0.01836513,-0.00003693,-0.00849762,-0.00670136,0.00527931,0.01250458,0.01069034,0.01998733,0.02025283,0.01200143,0.00933263,0.01549345,0.00272993,-0.00359678,-0.00059262,-0.00473772,-0.01035100,-0.01356003,-0.00890054,-0.00564826,-0.01049162,-0.02072069,-0.01236694,-0.01731583,-0.00929617,-0.01854864,-0.00759046,-0.00747174,-0.00461019,-0.00918926,0.00356138,-0.01283297,-0.00248367,-0.00723420,-0.00548209,-0.00980387,-0.00665408,-0.00081168,-0.00539266,0.00189743,0.00669723,0.01808538,0.01882947,0.02498149,0.03536798,0.05123207,0.05028902,0.06728269,0.08612428,0.09400546,0.11841821,0.15094500,0.18624100,0.22011713,0.26413582,0.29590486,0.33243150,0.36310868,0.38883803,0.42213448,0.43962249,0.44878036,0.44752460,0.45265292,0.44413523,0.43477076,0.40325691,0.37460287,0.35357228,0.30103398,0.24771715,0.21288397,0.16726380,0.13883533,0.09593886,0.09160622,0.09457788,0.09306300,0.09395954,0.10498709,0.11387822,0.12303638,0.11644369,0.12248308,0.11220722,0.08753950,0.07497978,0.07471939,0.05640423,0.03505884,0.03491701,0.03878688,0.03989043,0.04567310,0.06630969,0.06219057,0.06643712,0.08998986,0.10675059,0.11992226,0.13174674,0.13648504,0.13949180,0.16142204,0.15574396,0.12963648,0.14160190,0.11931081,0.10600771,0.11521868,0.11289849,0.10354836,0.08893157,0.08431069,0.08552817,0.08108718,0.10366972,0.11423052,0.14082576,0.16466569,0.17739197,0.20301641,0.18675929,0.18774683,0.16767657,0.14207250,0.11825523,0.09006748,0.06606346,0.04803586,0.03687182,0.02843172,0.03487706,0.03101998,0.02892133,0.02646546,0.02299347,0.02663434,0.03659620,0.03544458,0.03477608,0.04239138,0.05191327,0.05307464,0.06586701,0.07783280,0.08224680,0.09923299,0.11303910,0.10976233,0.13173282,0.13926400,0.14006290,0.14523561,0.15449194,0.14385247,0.14723803,0.14363030,0.12666123,0.11559344,0.11346432,0.11421298,0.10400335,0.09655569,0.10872648,0.09251106,0.11928915,0.12303495,0.14785771,0.15925815,0.19019749,0.21065705,0.25343699,0.28348908,0.33170671,0.35117685,0.38044618,0.45648683,0.49634501,0.53172900,0.54119348,0.59113453,0.59915055,0.62279824,0.62022944,0.60433032,0.57887014,0.56903564,0.51420770,0.46048499,0.42000742,0.37550888,0.32270710,0.27726904,0.25351455,0.23912438,0.22053166,0.21121360,0.21097148,0.20045531,0.21402652,0.21219766,0.20290361,0.19227189,0.19163464,0.18638513,0.15705887,0.14470796,0.11914996,0.13983688,0.13458997,0.13478157,0.14957202,0.17340805,0.19725052,0.24711772,0.27146962,0.33368112,0.39187392,0.43144813,0.45738439,0.50138458,0.49893037,0.49862729,0.48582209,0.45337503,0.44018797,0.41488533,0.39365111,0.36422343,0.35166133,0.34530333,0.34009793,0.33639199,0.32677780,0.29736084,0.26448585,0.23841402,0.21379284,0.16568369,0.14299898,0.11064366,0.09094153,0.08410106,0.06905123,0.06745329,0.05781900,0.07548403,0.06445077,0.05687698,0.07082182,0.06530730,0.08120943,0.07153292,0.07504908,0.07290453,0.07776761,0.07879517,0.07585185,0.09045452,0.08554518,0.09239504,0.08295740,0.08864604,0.09695687,0.09620179,0.07930640
0.02901955,0.03529187,0.03805657,0.03188143,0.04885564,0.04231472,0.05017637,0.04399331,0.03982122,0.04220826,0.03826511,0.03055701,0.02990189,0.03177532,0.02036027,0.01924788,0.02938307,0.02417313,0.02465474,0.03235246,0.02861680,0.03619055,0.02926654,0.03034551,0.04198806,0.04289213,0.05055460,0.04710058,0.05927508,0.03885227,0.05312803,0.05719102,0.04686882,0.05732763,0.05911618,0.07201058,0.08473922,0.10605588,0.13678167,0.14948662,0.16253900,0.16766371,0.18319282,0.15651265,0.16524069,0.13756876,0.12107195,0.10444044,0.08093301,0.07179172,0.06487437,0.05295116,0.04222859,0.03464025,0.04397047,0.03716520,0.04038642,0.03177888,0.04128396,0.02722351,0.03988195,0.04051919,0.03209734,0.03782742,0.02892914,0.03023776,0.03498287,0.04355255,0.03718806,0.03082447,0.04486488,0.04068996,0.05757128,0.08188532,0.09081211,0.12696927,0.14095148,0.16227296,0.17119025,0.16918140,0.16454079,0.16629855,0.15604037,0.18174711,0.19796122,0.23390685,0.28042443,0.31813489,0.35355002,0.41042026,0.44411990,0.45531622,0.46053728,0.46688740,0.45971326,0.45819333,0.42022068,0.42092393,0.36801141,0.33556060,0.30115967,0.25559000,0.23190418,0.20775994,0.17927438,0.15755295,0.14181846,0.12885059,0.13515536,0.12965442,0.16468673,0.17709270,0.21344707,0.22261702,0.25207576,0.25488751,0.26220936,0.24720601,0.23296010,0.21641443,0.17411397,0.14063068,0.12736510,0.09521121,0.08293424,0.07563751,0.07848146,0.06697258,0.07257870,0.07417764,0.08863454,0.11059622,0.11103163,0.13748481,0.14648302,0.16284513,0.17817003,0.20839176,0.21937615,0.25181987,0.26404371,0.28174182,0.28514472,0.28504109,0.29342991,0.27906420,0.28002706,0.25629666,0.21290012,0.20523021,0.19099860,0.15996880,0.14278644,0.14858630,0.13673448,0.13029971,0.13351026,0.11811994,0.11466137,0.10461516,0.08943928,0.07536880,0.05948742,0.06237421,0.04745102,0.05337265,0.05291632,0.06229104,0.04586309,0.05519716,0.05204273,0.05604634,0.03982370,0.05527762,0.05987250,0.05003641,0.05780687,0.05778335,0.05492513,0.06330475,0.06229435,0.06216248,0.07354029,0.07743076,0.07371639,0.08744474,0.08059729,0.09409243,0.09563377,0.08078719,0.09251081,0.07856640,0.08126548,0.07325498,0.07918287,0.08466630,0.08980108,0.09056453,0.08814542,0.08723645,0.09460466,0.10817207,0.11440216,0.13424151,0.15561438,0.17244887,0.20340418,0.21419378,0.25048783,0.28790136,0.32649750,0.39455712,0.41586320,0.46634440,0.51041608,0.57886669,0.59899179,0.61564826,0.63843501,0.61580427,0.63645475,0.62223844,0.58180965,0.53373888,0.46296882,0.41825837,0.37861265,0.32448458,0.29856163,0.26659988,0.24242382,0.22348404,0.20250680,0.18784134,0.17100720,0.16064256,0.16792969,0.14952326,0.14102891,0.13281606,0.12308283,0.14809819,0.13693304,0.14241437,0.14216566,0.16594211,0.18857398,0.22942557,0.27671756,0.31166213,0.33944936,0.40665239,0.45966370,0.47625999,0.50198914,0.54072974,0.52900204,0.54397217,0.51263419,0.51328905,0.49302552,0.46796615,0.44119292,0.43614099,0.39797049,0.39490932,0.37712588,0.36691728,0.33708481,0.33552786,0.29773492,0.28193086,0.24022364,0.19454749,0.17018399,0.13519621,0.11437705,0.10484933,0.09975773,0.07601660,0.08491460,0.07003517,0.07481468,0.07212506,0.07574039,0.07080890,0.07604409,0.07560877,0.06853824,0.07132161,0.08934734,0.07888684,0.07630521,0.07176801,0.07799006,0.07980582,0.07846116,0.09117227,0.08955018,0.08574453,0.07867110
0.07513024,0.08959475,0.08020710,0.07881899,0.09597381,0.09134599,0.08713573,0.09440626,0.08102995,0.07616752,0.06977104,0.07433740,0.07594719,0.06564499,0.05814544,0.05886268,0.06480128,0.06704184,0.06888354,0.07465022,0.06085581,0.06195472,0.08165331,0.07274438,0.08061098,0.09819746,0.10006429,0.11502628,0.10926291,0.10507919,0.09664098,0.09186651,0.09223378,0.10246992,0.10641299,0.12225688,0.13187420,0.15130856,0.17450233,0.21219587,0.21716937,0.22980018,0.24191744,0.23212238,0.21144928,0.20407117,0.17572309,0.15399225,0.13668491,0.11563398,0.09398934,0.08148093,0.08547588,0.07651771,0.06953899,0.06914149,0.08347227,0.07091883,0.07566420,0.07148205,0.07012972,0.07515710,0.07227246,0.07218458,0.07793668,0.07484070,0.07838940,0.06993020,0.06812095,0.08169949,0.08326344,0.09426415,0.10775429,0.11486662,0.13996625,0.16625931,0.18550267,0.21488800,0.22020246,0.21595057,0.18790795,0.20383167,0.20363373,0.20945564,0.20216804,0.22172860,0.24711661,0.26420261,0.30734308,0.30483921,0.32531915,0.32950491,0.35426326,0.36301045,0.36363776,0.37018053,0.36643173,0.37027543,0.37423175,0.36126208,0.36422341,0.34394442,0.32118166,0.28762031,0.27675909,0.24080337,0.21032032,0.17199812,0.16121023,0.13802888,0.14121256,0.13704635,0.14095610,0.14272492,0.14420762,0.15087227,0.13023622,0.13330420,0.13437060,0.11324441,0.11679296,0.11998558,0.11058117,0.11404963,0.11026038,0.10693828,0.12535013,0.12364765,0.13697259,0.15749500,0.17305687,0.18735429,0.21186414,0.23340534,0.25575924,0.28015910,0.29709711,0.31253809,0.35207592,0.38005227,0.36431325,0.39363699,0.38448846,0.39943760,0.37455767,0.37686908,0.33842456,0.33211962,0.30925523,0.25431164,0.22985522,0.21927173,0.21934185,0.19830892,0.20185156,0.19115986,0.17525099,0.16541408,0.15302880,0.14917120,0.13781499,0.11647552,0.11447149,0.10036998,0.10685208,0.10151337,0.09213994,0.09635978,0.09763674,0.09978520,0.09533478,0.10634148,0.11518920,0.10927480,0.11300678,0.11308994,0.12644599,0.13357002,0.13964170,0.15585313,0.16638573,0.19464065,0.20505968,0.22290815,0.24360320,0.24796627,0.25171143,0.24404741,0.25723129,0.25010762,0.24779888,0.23882058,0.23026923,0.22578801,0.21477014,0.19779242,0.18505033,0.17721002,0.18782869,0.18517774,0.18933120,0.20362160,0.20925746,0.22236051,0.24621842,0.26951595,0.30884805,0.32386010,0.33980009,0.37391664,0.37623320,0.40802030,0.41098883,0.42824567,0.43357618,0.45333533,0.42588733,0.43563152,0.42775688,0.42901333,0.39702726,0.37708445,0.35872522,0.31296883,0.30327946,0.26899317,0.25693965,0.24694158,0.24646104,0.25202705,0.23928294,0.25510676,0.25455997,0.25817212,0.26786782,0.28055049,0.26838291,0.27500791,0.25092096,0.24203707,0.23787714,0.22137377,0.20497943,0.18869547,0.18135644,0.17981894,0.18740505,0.17717373,0.20823522,0.22200030,0.24061568,0.26168330,0.28468859,0.33163359,0.37033836,0.40046629,0.44128481,0.46699463,0.49401381,0.50911011,0.52135825,0.51291638,0.51434946,0.50978042,0.47623702,0.48334613,0.45790607,0.45483060,0.45432351,0.41297458,0.39981428,0.33072035,0.31650528,0.26228237,0.23302510,0.19398365,0.16653911,0.15714608,0.13349662,0.13280839,0.13288866,0.12909511,0.13453517,0.13464825,0.13290149,0.12485720,0.12740173,0.14047769,0.14380385,0.15390401,0.14364644,0.14071469,0.15883441,0.14623702,0.14409765,0.16173574,0.16036385,0.14485141,0.15580355,0.16511000,0.17153477
0.01268928,0.02081484,0.02932504,0.03940407,0.03755653,0.04621924,0.04521080,0.04804701,0.04575152,0.03379687,0.02506482,0.01667328,0.01064288,0.01702438,0.01480544,0.00943156,0.01137779,-0.00316243,0.01580814,0.01516594,0.01679907,0.00362012,0.01490165,0.02198566,0.03440739,0.04251894,0.05496701,0.05930276,0.06442162,0.06926809,0.07283966,0.04939872,0.05551960,0.04505467,0.04505958,0.06495770,0.07061269,0.09309235,0.10815145,0.13986944,0.16510458,0.17221952,0.18563747,0.18095643,0.17141697,0.14464535,0.12519847,0.11307677,0.08839135,0.06513634,0.05737778,0.04593140,0.03951614,0.04064774,0.02543888,0.03051264,0.03303774,0.02795426,0.02910918,0.03657715,0.03670781,0.03261395,0.04142712,0.04105790,0.03328742,0.03311077,0.03977913,0.04065854,0.03864898,0.03963676,0.04437351,0.05468005,0.05926021,0.06910067,0.10649422,0.11676549,0.15569401,0.16973275,0.19344286,0.18068879,0.18554499,0.15816422,0.16733740,0.16701369,0.16577676,0.18684334,0.20156310,0.23260351,0.25088604,0.26200940,0.30756260,0.31978723,0.34556793,0.35521039,0.35867487,0.35376854,0.38002364,0.37931062,0.39407806,0.40816590,0.38891930,0.38707782,0.37651901,0.33410145,0.31949856,0.26587890,0.22362104,0.19837312,0.16219277,0.15071797,0.13438438,0.13618724,0.12465102,0.12875596,0.13341405,0.12498876,0.12663710,0.13470291,0.12863276,0.11775774,0.11769314,0.10132947,0.10860680,0.10268535,0.09874974,0.10371607,0.11075208,0.12226715,0.12473407,0.15121291,0.17730350,0.18667110,0.22795486,0.25218354,0.28326342,0.29170819,0.32039028,0.33955069,0.36278278,0.37850424,0.40233640,0.39299868,0.40056762,0.40160446,0.40072238,0.37057127,0.34095488,0.32934048,0.30169281,0.27753473,0.23279955,0.22091169,0.21767299,0.21538048,0.20830536,0.19966293,0.18234104,0.19058959,0.18265451,0.16925300,0.14385364,0.14017714,0.12683948,0.11200822,0.10804664,0.10200415,0.11048818,0.10035651,0.11038593,0.10610473,0.11590277,0.10800609,0.11486190,0.12976857,0.12654283,0.13543404,0.12906823,0.14906205,0.15277175,0.16155519,0.17315204,0.19506649,0.21184141,0.22280737,0.23788377,0.24894388,0.25586083,0.26355936,0.26841533,0.26170866,0.27904480,0.25630506,0.24487690,0.23933513,0.22902064,0.22321503,0.21127700,0.21156489,0.20357558,0.20480154,0.22560679,0.23556092,0.24881042,0.26679423,0.30900436,0.33324443,0.36490188,0.39783439,0.40575806,0.45639545,0.47310205,0.49068536,0.49119750,0.50437890,0.51232733,0.51541527,0.51377346,0.51611650,0.49529075,0.48767160,0.46177886,0.45334364,0.42203624,0.37849672,0.36077919,0.35680882,0.32359631,0.30472229,0.31467007,0.29644140,0.29829370,0.33278119,0.34626114,0.34512135,0.37200449,0.35641745,0.37278654,0.35486012,0.34421596,0.34629630,0.30720618,0.29400095,0.27770223,0.27165608,0.24468067,0.22824749,0.23124455,0.25460606,0.24889130,0.25428514,0.27589029,0.31995121,0.36820216,0.38387825,0.41499776,0.46950528,0.52072536,0.53357817,0.57164117,0.60996101,0.62420839,0.61560021,0.60767062,0.57566029,0.56899323,0.56439590,0.55412127,0.52415316,0.51471352,0.49006339,0.47787305,0.43368083,0.39772103,0.34584323,0.31238231,0.27814823,0.24879442,0.22378530,0.21114048,0.20723592,0.19197327,0.19284901,0.18897595,0.19722371,0.20214291,0.20457476,0.19759031,0.20947454,0.19379751,0.20769502,0.19978308,0.21663569,0.21846545,0.23825973,0.23459997,0.22410062,0.23166327,0.22018687,0.23985630,0.23816603,0.22423924
-0.00007380,0.00495880,-0.01168961,-0.01174482,0.00141781,-0.01002915,0.00720061,-0.00721607,0.00338655,-0.00021477,-0.00820402,0.00120166,-0.00924525,-0.00838510,-0.01176065,-0.01423536,-0.01921205,-0.00863202,-0.00899802,-0.01577988,-0.00842892,-0.01342951,-0.01437273,-0.00521934,0.00402197,0.00773367,0.01075529,0.01034930,0.01362812,0.01260591,0.01669341,0.01896342,0.02490470,0.02191355,0.04217225,0.05870544,0.07915794,0.10414012,0.14716799,0.16212290,0.20220577,0.21714223,0.22893720,0.22224162,0.20571114,0.18055904,0.14874980,0.11548232,0.07950498,0.05619673,0.04654085,0.02089627,0.02701746,0.01439497,0.01057722,0.01298406,0.01527121,0.01305626,0.01197808,0.00760685,0.01224944,0.01729253,0.02287698,0.01818080,0.00910526,0.02059261,0.01976313,0.02746612,0.01992787,0.02412651,0.03053208,0.03436658,0.03928954,0.06012515,0.10530218,0.12957852,0.16748948,0.19269605,0.19380192,0.22070467,0.21024617,0.19512499,0.18871186,0.19525383,0.20684140,0.22997651,0.25694710,0.30386514,0.33236348,0.35436951,0.38888641,0.39467822,0.39103087,0.39903458,0.36488772,0.35188066,0.32726848,0.28080327,0.25714344,0.24695274,0.21980487,0.18960340,0.17943783,0.14314240,0.14981309,0.12953914,0.11556129,0.09193734,0.10651281,0.09505338,0.10766559,0.12086204,0.12708157,0.14338568,0.16007574,0.16087819,0.17449002,0.17958054,0.15855417,0.13866916,0.12684489,0.10714288,0.10860898,0.08745584,0.08369675,0.07890980,0.07303144,0.07562572,0.07231623,0.08378743,0.09143196,0.09436742,0.11884796,0.15625864,0.15469887,0.17688272,0.21686999,0.23991407,0.29318016,0.32249732,0.34025086,0.37951742,0.39262923,0.41106201,0.42938102,0.39072449,0.37152022,0.35785825,0.32949910,0.27846079,0.25608567,0.21108404,0.17845044,0.15440863,0.11572735,0.12110430,0.10773142,0.09470193,0.09384291,0.07635151,0.08846013,0.08486399,0.07742825,0.06981353,0.06942822,0.06038922,0.07279738,0.07587840,0.07450181,0.07464329,0.06873528,0.08123567,0.07696212,0.08973255,0.08705236,0.10347791,0.09104907,0.11296973,0.12457201,0.13054464,0.14989497,0.17862533,0.20822734,0.20757827,0.22207834,0.24411312,0.25983541,0.28092507,0.26872893,0.26351210,0.25739757,0.24176727,0.23540669,0.22547721,0.19956785,0.19288796,0.17781250,0.16296920,0.15997601,0.14707165,0.15450937,0.14989069,0.15210230,0.16131626,0.17108709,0.17695340,0.19511137,0.21121205,0.22451684,0.25344362,0.26456159,0.28389219,0.31729001,0.33449663,0.34422351,0.34596241,0.39064647,0.37987947,0.40741936,0.41856633,0.40241236,0.38860262,0.37735927,0.34707144,0.33993846,0.31151489,0.29207067,0.26453530,0.24597327,0.24287864,0.21968290,0.20551226,0.20326132,0.19361751,0.19139775,0.18744430,0.18699304,0.19249909,0.19508201,0.17219598,0.17472758,0.16263368,0.16802650,0.15361285,0.16296894,0.15626873,0.17544314,0.18396023,0.20666057,0.22451199,0.25866399,0.27557221,0.31360902,0.33991181,0.34369583,0.38226541,0.40294133,0.43417974,0.47289136,0.49949395,0.49543169,0.51593342,0.51742667,0.50199550,0.49866177,0.48861483,0.46273231,0.44013885,0.44709653,0.43428336,0.41918534,0.36982786,0.33432766,0.30903239,0.26534084,0.21555563,0.18753154,0.17174359,0.16180934,0.14085498,0.13899038,0.14405310,0.14674328,0.13157623,0.14311144,0.13675065,0.15429583,0.14229358,0.14836060,0.14042348,0.15664976,0.15982424,0.17775882,0.16651052,0.16656324,0.17491633,0.17509043,0.18010998,0.18234300,0.18276891,0.18646146
0.05130531,0.06270170,0.05237231,0.05662704,0.05449032,0.05817058,0.05557896,0.04940219,0.04378514,0.04939154,0.03792416,0.03755503,0.03681194,0.03607584,0.03053301,0.03558695,0.03999886,0.02643068,0.02413822,0.03216202,0.03612862,0.03867806,0.03910788,0.03883582,0.05302830,0.04904764,0.04904563,0.05471878,0.05412555,0.05113245,0.05238610,0.04688704,0.04579569,0.05611169,0.04270360,0.05480891,0.06251382,0.08041265,0.08202976,0.10144910,0.11214720,0.12113644,0.12504242,0.11813869,0.10782649,0.10194960,0.08122286,0.08480654,0.06240204,0.05695854,0.04888671,0.05647527,0.03915158,0.03868182,0.04555321,0.03968121,0.03375309,0.04222280,0.03567166,0.04109722,0.04391427,0.03326987,0.03145136,0.03411606,0.04058451,0.04833945,0.04121194,0.04234772,0.03690864,0.04041596,0.04366796,0.03555561,0.04891367,0.05693425,0.07177255,0.09171181,0.10229051,0.12102282,0.13126767,0.14026014,0.14224206,0.15397084,0.17101833,0.19174138,0.22938838,0.26167891,0.32206273,0.36565656,0.40418130,0.47504893,0.51948709,0.55218335,0.55754276,0.57197623,0.58538264,0.57738392,0.58042545,0.54447805,0.51812861,0.48847853,0.43930570,0.38274115,0.34270242,0.28562197,0.24374128,0.20047897,0.16506507,0.13222494,0.11804188,0.11679728,0.10957997,0.13584969,0.14249924,0.15941089,0.16688414,0.18141708,0.18495469,0.17382082,0.16656681,0.16516514,0.13071619,0.11728881,0.10306728,0.07931718,0.07178248,0.06110129,0.05614869,0.06299647,0.05745241,0.05194559,0.06278892,0.07488986,0.08866552,0.08962542,0.11143623,0.10404915,0.12220345,0.13740609,0.14647791,0.15549102,0.17467466,0.16969683,0.17904604,0.18383530,0.17373396,0.18039935,0.17547323,0.16857108,0.16751532,0.15357496,0.16497186,0.16952528,0.17848869,0.19191611,0.22302363,0.21498786,0.23584009,0.22354796,0.21236384,0.17431660,0.14053934,0.12411051,0.10072847,0.08210758,0.06387869,0.05281723,0.04684910,0.04750118,0.03765338,0.04356308,0.04625788,0.05523667,0.04801087,0.04860200,0.06863250,0.06882167,0.08205015,0.08464242,0.09417258,0.11789829,0.14197132,0.16425189,0.18735179,0.19764534,0.22331100,0.22841788,0.24613664,0.26018546,0.26702932,0.27521331,0.26387054,0.25730097,0.21973809,0.21546088,0.18631878,0.18026520,0.15348135,0.14097081,0.13064504,0.11661348,0.10407375,0.10420721,0.10521061,0.11407386,0.12758516,0.15206678,0.15665468,0.21527657,0.23052481,0.27142859,0.31035198,0.36111805,0.41407354,0.46354313,0.53529355,0.56962550,0.61325114,0.63843491,0.69506879,0.65860883,0.65980168,0.64138038,0.57926374,0.53481028,0.47933047,0.43697752,0.38223027,0.33368137,0.27208157,0.23978319,0.20380244,0.18492020,0.14555765,0.16158841,0.13576994,0.13754124,0.12048476,0.12186353,0.11078036,0.10489454,0.11126593,0.10836718,0.08991133,0.09527876,0.09520858,0.12368622,0.14100160,0.16780955,0.19135441,0.24448173,0.29029333,0.34301047,0.40134049,0.45848076,0.50468016,0.52874091,0.55410845,0.54753471,0.53598727,0.52297059,0.49563613,0.46915995,0.45786252,0.43495142,0.41511190,0.40555771,0.40959566,0.40846347,0.39208741,0.37064828,0.33650207,0.33109970,0.27526958,0.22864731,0.19212134,0.15801534,0.11019295,0.10173389,0.08364597,0.07235329,0.05893408,0.05788761,0.06102550,0.06047637,0.06121977,0.06857734,0.06981107,0.06618700,0.06516004,0.07683617,0.08099244,0.07874080,0.08354998,0.08474849,0.09473301,0.08921913,0.10685428,0.10247386,0.10672713,0.11930456,0.10828370
0.02600532,0.04288087,0.02756505,0.03652630,0.02884320,0.02956682,0.02703253,0.03136575,0.04216720,0.02643714,0.03180195,0.01927342,0.03149095,0.04454690,0.02363484,0.01485377,0.02364722,0.03596064,0.03285142,0.02880742,0.03342895,0.03168404,0.02466891,0.03672361,0.03401796,0.04285472,0.03593049,0.03910028,0.03149735,0.04690093,0.04619790,0.04488273,0.05239640,0.05563989,0.06802829,0.09340610,0.10608109,0.12677683,0.14745868,0.17706368,0.20957065,0.22551117,0.22090748,0.22882747,0.20632965,0.19341814,0.17860138,0.13674028,0.11765631,0.09629654,0.07721095,0.05710260,0.05650043,0.05268656,0.03828473,0.03441990,0.05161195,0.04924160,0.04759840,0.04085362,0.05161367,0.04057434,0.05005482,0.04494461,0.04737964,0.05109810,0.05192862,0.04867497,0.05657038,0.04567485,0.05032311,0.05284229,0.07059761,0.08551162,0.11147248,0.13318108,0.17706152,0.19765312,0.21598487,0.20915989,0.22355690,0.20131076,0.18522839,0.19540002,0.21850487,0.24172987,0.26356957,0.30212188,0.34971701,0.37256168,0.41249673,0.42008326,0.42312007,0.43419365,0.41369534,0.40274531,0.37527535,0.35091977,0.32823189,0.28916192,0.27499136,0.24661104,0.21639574,0.17530521,0.16102729,0.13441385,0.10898270,0.10811366,0.10891258,0.10883985,0.11383671,0.13226195,0.12901550,0.16389663,0.16692303,0.16844819,0.16691508,0.17930665,0.16751069,0.15752596,0.14065660,0.12478888,0.11231753,0.09670738,0.09987327,0.09031899,0.08516404,0.07855980,0.07862997,0.08071206,0.08590052,0.09692386,0.10999282,0.12271394,0.14249063,0.15004888,0.17576438,0.19949004,0.23888641,0.25506407,0.30806184,0.31515713,0.35684522,0.34971945,0.36285686,0.36015989,0.33741414,0.33295741,0.30112509,0.26704158,0.26068878,0.23292293,0.21144616,0.19733790,0.18348649,0.17740072,0.16894376,0.16825509,0.15965457,0.13737680,0.12069941,0.11972458,0.09918096,0.10473383,0.08986797,0.09284454,0.09707397,0.09590843,0.07636209,0.08880814,0.07961243,0.08301950,0.08280443,0.09518263,0.10144923,0.10299175,0.10592468,0.12420527,0.12799647,0.14975008,0.16534187,0.18604686,0.20095331,0.22017245,0.21579130,0.24102170,0.27142647,0.27335984,0.27612376,0.28829989,0.27708567,0.25225544,0.25559795,0.22906823,0.22478628,0.19340053,0.17691712,0.16879252,0.15048739,0.15751603,0.14604046,0.13287693,0.13536005,0.13951752,0.13621716,0.15053708,0.15986664,0.18357757,0.20394482,0.19984643,0.24282101,0.26822932,0.29129812,0.33063430,0.35383466,0.38327338,0.40892958,0.46800769,0.44680501,0.46788607,0.45232517,0.45479032,0.43353288,0.41413920,0.37839010,0.35606657,0.31312476,0.28347673,0.26591734,0.22056989,0.20397467,0.20022878,0.16648161,0.17605655,0.17342446,0.16017477,0.15718138,0.15176421,0.14172665,0.14203714,0.14050477,0.14131338,0.14698426,0.14578993,0.15424984,0.15257233,0.16790096,0.18845722,0.19930096,0.24276937,0.26761050,0.31402181,0.33061328,0.35444784,0.40732586,0.44258676,0.45371665,0.48368310,0.48518084,0.50151302,0.49878347,0.50423186,0.50488451,0.51070499,0.48939679,0.47661071,0.48560360,0.47347749,0.48689790,0.44707719,0.43428190,0.41325217,0.36970866,0.32543316,0.27697199,0.23472101,0.20719096,0.17991942,0.17098698,0.15405143,0.13097854,0.12464099,0.14542162,0.15681586,0.15103566,0.14173193,0.14265485,0.15386570,0.14160388,0.15529372,0.15732952,0.17673225,0.16692024,0.15996988,0.16235537,0.18143897,0.18688948,0.17907587,0.20012440,0.18113821,0.18456633
0.00677288,0.00515425,0.01306084,0.01565970,0.01902500,0.02494322,0.01560020,0.02216394,0.01893813,0.02085216,0.00565789,0.00698303,0.00089878,-0.00499874,-0.01513747,-0.00558001,-0.00987429,-0.00376664,-0.00754126,-0.01746441,-0.01391880,-0.00245804,-0.00028721,-0.00052441,0.00129474,0.01225257,0.01641113,0.01369854,0.02067900,0.01884436,0.01463284,0.01764328,0.01124986,0.01359516,0.00693537,0.02335737,0.02933685,0.05300120,0.05044775,0.06231325,0.08116231,0.09489146,0.09863325,0.09517312,0.09859510,0.07769496,0.06121047,0.04595329,0.02587261,0.02557516,0.02110216,0.01090617,0.00748611,0.00553118,-0.00153149,-0.00717795,0.00000895,-0.00057451,-0.00982794,-0.00112921,-0.00142752,-0.00022113,-0.00287138,-0.00777441,-0.00855760,-0.00811969,-0.00978235,-0.01013458,0.00640918,0.00225746,-0.00303532,0.00738474,0.01331399,0.02289341,0.03116437,0.04526055,0.06485463,0.07323327,0.08706051,0.08546333,0.09009333,0.08112942,0.07256680,0.07941471,0.09213365,0.08541919,0.11893415,0.14259148,0.16417009,0.18674096,0.21829587,0.25237108,0.25782865,0.29775271,0.31136789,0.31970588,0.32968839,0.34920118,0.34057608,0.32825920,0.34380125,0.29808348,0.27650188,0.25658008,0.21450670,0.19692218,0.15240079,0.10539915,0.09560034,0.07520602,0.07304859,0.07750400,0.07464350,0.05859851,0.07654246,0.08530383,0.09183930,0.07806912,0.07994736,0.07000134,0.05558611,0.04675166,0.04162715,0.04161831,0.03751990,0.02619002,0.03745824,0.03557947,0.03957289,0.04855672,0.05201457,0.07701227,0.08714465,0.10002469,0.12564997,0.15096768,0.16110588,0.17052364,0.17697605,0.17377406,0.20131160,0.20656901,0.19988267,0.19167765,0.19131661,0.18795319,0.17227935,0.15001537,0.15133557,0.13245540,0.13792863,0.12802702,0.13914881,0.13448170,0.12932025,0.14888424,0.14612728,0.14341310,0.12193966,0.12202188,0.09715342,0.06862198,0.06127414,0.03606216,0.02916609,0.02760117,0.00877157,0.01320672,0.01070094,0.01225731,0.01650088,0.00616446,0.01388985,0.01124685,0.01341036,0.02963499,0.01506563,0.02472850,0.03356936,0.04080349,0.04036882,0.04055531,0.05889387,0.05911213,0.05871037,0.07554389,0.07143579,0.08396105,0.08512397,0.07895709,0.08682928,0.08718555,0.08643233,0.06205239,0.06619425,0.06592127,0.06705286,0.06240179,0.06492836,0.06732015,0.07448606,0.09299864,0.09224501,0.12440112,0.13682534,0.16011429,0.19175874,0.21584012,0.24367304,0.27305346,0.29110642,0.34356380,0.35512422,0.38162606,0.41176550,0.44345699,0.44650599,0.47156990,0.45019041,0.46692902,0.41674764,0.42402114,0.40118173,0.35797567,0.30213466,0.27498100,0.24768914,0.21000393,0.19932981,0.17417381,0.16768742,0.15501218,0.16794885,0.16059434,0.16587587,0.16952780,0.17483909,0.15787387,0.15476846,0.15802838,0.14419040,0.11729326,0.11391092,0.10129230,0.09646494,0.09020956,0.09240401,0.11296041,0.11603136,0.15348070,0.17908889,0.20938824,0.25000805,0.29840719,0.32617225,0.37724657,0.39630038,0.40314058,0.41929292,0.43394528,0.42809638,0.41459733,0.42136525,0.38209519,0.36807795,0.36615390,0.35656067,0.34870637,0.34040275,0.33003859,0.29409240,0.27251901,0.24381550,0.19765869,0.16238122,0.12534732,0.09299830,0.07923881,0.05957921,0.04293245,0.03769025,0.04874621,0.03603458,0.03476370,0.03009441,0.03826104,0.04514486,0.04378802,0.03953180,0.04567801,0.04370177,0.04782468,0.04535920,0.04111430,0.04748163,0.05142310,0.04597392,0.06041558,0.06176152,0.05674052,0.05452553
0.04320803,0.05352140,0.04869323,0.06444625,0.06548479,0.07024532,0.07262093,0.06381322,0.06081056,0.05577912,0.05203597,0.04965465,0.04622999,0.03943668,0.04512198,0.03566132,0.03136897,0.03848998,0.03558108,0.03723275,0.03559835,0.04272816,0.03960444,0.05266557,0.06349215,0.06636418,0.08601046,0.08884571,0.10895470,0.08744872,0.09028253,0.08715400,0.06675527,0.07543823,0.07379959,0.09211546,0.11270661,0.12240680,0.14335552,0.17024475,0.19735585,0.21196324,0.21363032,0.18966465,0.19228464,0.18455546,0.15415892,0.12192769,0.10144957,0.09913715,0.08145452,0.07889965,0.06269751,0.05427621,0.05489885,0.04759720,0.05638016,0.05980847,0.05455918,0.04315427,0.05484550,0.05029295,0.05900429,0.05591125,0.05806768,0.05423984,0.06522543,0.06051116,0.05718802,0.05411210,0.06809425,0.07283486,0.08685139,0.11373769,0.11412212,0.14260506,0.17219380,0.18981515,0.19776090,0.18923567,0.19151832,0.16748352,0.17145604,0.15173757,0.15920570,0.17548042,0.20148546,0.22976340,0.24564951,0.28459089,0.29685693,0.33869534,0.33086254,0.35779872,0.36745395,0.38350622,0.39608646,0.39785848,0.40574011,0.40016237,0.41728250,0.39654980,0.38326106,0.33508612,0.29354588,0.30089462,0.24313248,0.21492835,0.19191565,0.16367338,0.16237825,0.17241708,0.16978938,0.16208984,0.18802514,0.19286235,0.20233382,0.18836718,0.18495259,0.17962778,0.15441360,0.14583820,0.12959982,0.12176085,0.12390590,0.12324397,0.12914599,0.12901433,0.14104827,0.16437703,0.18273525,0.20917263,0.23548909,0.26844696,0.28857580,0.32380683,0.33243793,0.35990811,0.37005430,0.39093655,0.40815472,0.40561642,0.41549288,0.40998235,0.39915364,0.39152128,0.36782242,0.33259368,0.31141116,0.29032795,0.27151495,0.24384658,0.22281024,0.20711656,0.20182474,0.19521072,0.17895064,0.18734164,0.17429027,0.16126206,0.14147201,0.14034336,0.13454221,0.11582920,0.11918128,0.11560607,0.11264949,0.10002096,0.10523584,0.11175939,0.10433022,0.11865475,0.12052966,0.12950101,0.12279289,0.12140726,0.12841687,0.14040842,0.14305386,0.13260406,0.12938406,0.14401856,0.15374936,0.16139476,0.15432817,0.15634888,0.16840348,0.16021159,0.17437288,0.17466466,0.16848693,0.16244769,0.17377685,0.17886955,0.16012261,0.17301962,0.17638677,0.18131141,0.17877724,0.18912864,0.20894438,0.23991100,0.25304275,0.26516111,0.31160160,0.35803136,0.34929018,0.40412930,0.44499331,0.46653226,0.49712427,0.53896492,0.53653487,0.56994641,0.55498844,0.58222658,0.58480932,0.58802063,0.57328484,0.55820213,0.55626632,0.51188581,0.49196732,0.44310239,0.41525653,0.39382164,0.37204254,0.34854837,0.33783748,0.32910956,0.35265997,0.34816196,0.34794364,0.33894943,0.37755498,0.37254806,0.39210177,0.36855486,0.34753094,0.33183913,0.33247300,0.30742518,0.28874766,0.26055605,0.25305179,0.24642122,0.24970684,0.25986472,0.26761571,0.29574953,0.31952398,0.36713685,0.40059419,0.44464330,0.46862956,0.51450796,0.53576568,0.55296523,0.61178666,0.60402542,0.63618682,0.64457055,0.61216876,0.59173960,0.58124630,0.54127431,0.53519455,0.50438189,0.49324230,0.47365902,0.44939992,0.42096753,0.38187298,0.34166274,0.31543378,0.26208130,0.23369323,0.22278786,0.19690069,0.18087917,0.17925066,0.18713375,0.18134971,0.19385446,0.17447926,0.17974846,0.18450467,0.19193100,0.20238483,0.18435337,0.18593090,0.20239574,0.19054907,0.20121892,0.19067151,0.19687804,0.20630567,0.20524964,0.18904534,0.19791180,0.19079687
0.05831402,0.04190922,0.04593762,0.05114616,0.05546624,0.05341065,0.05912038,0.04765659,0.04722376,0.04092979,0.03858441,0.02528901,0.04019390,0.01975477,0.01906199,0.02339625,0.01564211,0.02478093,0.02464615,0.02562131,0.01690623,0.01814484,0.02375017,0.02804127,0.03770607,0.04798185,0.05547867,0.06033808,0.07375806,0.07355373,0.06650161,0.05807520,0.05063685,0.05285066,0.03942721,0.03809580,0.04980106,0.05883135,0.06687304,0.07712957,0.08612536,0.09590180,0.09276075,0.08997175,0.09116197,0.08726484,0.07397519,0.05794546,0.05606361,0.04531279,0.04502062,0.03539070,0.03483584,0.03832146,0.03302109,0.03140807,0.03029928,0.02744698,0.03509131,0.02473264,0.02916906,0.02751292,0.03603519,0.04626419,0.02742901,0.03853850,0.03509244,0.04721847,0.02316023,0.03314270,0.04320535,0.04324182,0.05054490,0.04533085,0.06416803,0.07483154,0.10582394,0.10910032,0.12158939,0.12758974,0.14874547,0.15125887,0.16874326,0.18133802,0.22385312,0.25783985,0.27893350,0.31825702,0.36293748,0.38734471,0.40309542,0.42847102,0.44203554,0.43808835,0.43303535,0.43849476,0.42935079,0.42490486,0.42737715,0.42958900,0.41747088,0.38930558,0.35987661,0.33061957,0.29494542,0.25734193,0.21039241,0.17462064,0.14555923,0.11238480,0.10079128,0.09128333,0.08787476,0.08204189,0.07615907,0.07234852,0.07463544,0.07038209,0.07008170,0.06999989,0.06856152,0.07268025,0.06660688,0.06683436,0.07031464,0.06827302,0.07133137,0.08346881,0.09205682,0.12153690,0.13759704,0.14509542,0.16648645,0.19272521,0.20987010,0.22245554,0.23287069,0.24529734,0.23422509,0.22948319,0.23844414,0.24487287,0.22893165,0.22456877,0.21783524,0.20582868,0.18614314,0.17975620,0.17616365,0.16547191,0.15656403,0.15501836,0.16999725,0.17838036,0.16787424,0.17585767,0.17768570,0.18054170,0.16593558,0.14916696,0.14498149,0.12083311,0.09827711,0.09195063,0.08293154,0.08715640,0.06453137,0.07422543,0.07589579,0.08329737,0.07875088,0.08692203,0.09228912,0.08434045,0.10046518,0.11220647,0.13218530,0.14227061,0.17656428,0.19855502,0.23293499,0.24707368,0.30177835,0.33613242,0.35414000,0.39313713,0.42333032,0.45369479,0.43559547,0.44079748,0.42246470,0.41754356,0.37623384,0.35510391,0.33113097,0.29990609,0.26882616,0.24447135,0.22323657,0.22159785,0.20848901,0.19874353,0.21797521,0.23022683,0.25265011,0.27647640,0.28575908,0.32082230,0.33596516,0.36183422,0.37387493,0.39644491,0.40891392,0.40512063,0.42858960,0.41994249,0.43501976,0.40270176,0.41464110,0.38104037,0.36774288,0.34942292,0.32897752,0.29135650,0.27385997,0.26016133,0.23371883,0.22555473,0.21463956,0.22255987,0.22464067,0.23685515,0.23889693,0.25024842,0.24043021,0.26153462,0.26482745,0.27736404,0.25843520,0.24072553,0.22977692,0.20780892,0.18650259,0.16870957,0.16982785,0.16378215,0.14891666,0.15320846,0.16460526,0.16964478,0.19427783,0.20756655,0.23059171,0.27090418,0.31851062,0.34014266,0.35858422,0.39741124,0.42238886,0.41312170,0.43023963,0.44116754,0.40936128,0.40261839,0.38330123,0.36638123,0.35788989,0.36922574,0.35479586,0.33499751,0.33406567,0.29066913,0.26619689,0.24091208,0.20157622,0.17368924,0.15649986,0.13781627,0.13589734,0.13100463,0.12376026,0.11456931,0.12648108,0.12497216,0.13480962,0.14472024,0.15811223,0.16322126,0.15175461,0.16825626,0.17011455,0.18210960,0.19967159,0.19856380,0.20278909,0.20219088,0.20525075,0.21197657,0.22163794,0.23076315,0.22482590
-0.00524823,-0.01206579,-0.00739566,-0.00060414,0.01240954,0.01016084,0.00015373,0.00503331,0.00504421,-0.00113801,-0.00326601,-0.01297745,-0.00546407,-0.00855928,-0.01873960,-0.01662153,-0.02908011,-0.03095004,-0.01499772,-0.02025763,-0.01608489,-0.01347211,-0.01863031,-0.01171488,-0.00097625,-0.00035887,0.00345556,0.01491025,0.00738020,0.02061876,0.02037356,0.01594482,0.00735483,0.01453176,0.03252846,0.03675488,0.05392641,0.07957355,0.11468429,0.13065028,0.15737237,0.16836842,0.16826741,0.15388677,0.14471045,0.11656628,0.09843565,0.07318696,0.04824126,0.02872759,0.02240798,0.01513740,-0.00195669,-0.00523682,-0.00389940,-0.00768732,-0.00510839,-0.00472705,-0.00791764,-0.00979467,-0.01576057,-0.01261994,-0.01288699,-0.00744615,-0.01487734,-0.00788329,0.00021782,0.00054154,-0.00701861,-0.00337124,0.00131125,0.01597786,0.03278252,0.03969574,0.06435640,0.09032156,0.12649905,0.12618505,0.13305058,0.13763358,0.13043082,0.11033150,0.10190338,0.07786410,0.09419824,0.10511873,0.11142205,0.13180482,0.14418319,0.16580083,0.19993206,0.22570202,0.24687712,0.27414205,0.30017984,0.31906530,0.32365596,0.35298642,0.36087706,0.34704360,0.32907993,0.31822897,0.28565314,0.23530406,0.19397353,0.15931255,0.12767779,0.10275058,0.08173795,0.04124938,0.03100733,0.04431967,0.03256784,0.03808444,0.03632792,0.02385053,0.03112035,0.03220509,0.03097480,0.03170359,0.02976582,0.02782588,0.02075967,0.02743994,0.02546621,0.02847555,0.03822492,0.04035365,0.05373878,0.06608342,0.07695091,0.09234552,0.11479408,0.14842769,0.16143598,0.18835273,0.21390638,0.23544241,0.27218236,0.27331232,0.30734694,0.33113410,0.33125718,0.33162007,0.33605159,0.31513719,0.27616447,0.25842035,0.22588272,0.21883080,0.20161236,0.19277682,0.19991705,0.20959735,0.21106578,0.20012822,0.19958293,0.17895670,0.15426761,0.12783913,0.10193855,0.07986027,0.06274898,0.04961956,0.04501822,0.04195672,0.02394630,0.02357235,0.02854535,0.03119813,0.03354966,0.02984671,0.03029592,0.03148560,0.03642975,0.03760963,0.05031435,0.05360134,0.06555625,0.06551483,0.09070530,0.09625566,0.10212435,0.11806053,0.13110573,0.13587649,0.14191644,0.14848342,0.14060216,0.14893963,0.13148624,0.12908440,0.13191564,0.11794375,0.10660967,0.09414996,0.09755934,0.09631982,0.10068414,0.10421994,0.10758842,0.11290207,0.13488128,0.15033816,0.15869567,0.19202777,0.20568081,0.22161848,0.25797580,0.28360358,0.32170957,0.34717002,0.37783811,0.38711346,0.40520132,0.42469591,0.40795807,0.43228359,0.41545947,0.40261824,0.37710891,0.35020290,0.33095219,0.27609679,0.25546796,0.21717038,0.18774296,0.18044593,0.16779431,0.16868094,0.16415621,0.16149980,0.16259638,0.16137098,0.17593396,0.17385105,0.17207025,0.16987476,0.16783929,0.13958333,0.13391518,0.11770524,0.10557990,0.10603189,0.09692075,0.10454070,0.10743459,0.12638844,0.15078672,0.15810171,0.22098288,0.25918744,0.27846212,0.34029776,0.39058395,0.42087086,0.45811621,0.50523228,0.53179653,0.51834656,0.53932012,0.54131800,0.53498811,0.54549077,0.52535256,0.52669985,0.51622237,0.50283816,0.47929829,0.47438793,0.42921577,0.37278336,0.31658348,0.25312219,0.22131896,0.16629578,0.13951941,0.11133552,0.08603023,0.06902805,0.07409864,0.07177079,0.06561862,0.07370501,0.06861127,0.06960408,0.07281534,0.07731388,0.07316829,0.08079660,0.09459882,0.08561018,0.08416771,0.07300570,0.09291715,0.10393360,0.08178968,0.09553660,0.11008555,0.10255024,0.10801938
0.03554084,0.02531724,0.03346960,0.03203946,0.02975882,0.04858268,0.04496940,0.03471502,0.03276511,0.02768653,0.03419160,0.02781663,0.03031122,0.02677032,0.01322268,0.01415837,0.01861703,0.03103862,0.02473062,0.02892325,0.02330734,0.01905453,0.04033722,0.02796292,0.02572330,0.03176808,0.04437989,0.04354351,0.04638442,0.04812965,0.04220048,0.04186581,0.03672125,0.03829195,0.05084514,0.05872861,0.07324971,0.09050462,0.08597557,0.10887967,0.12252990,0.15183940,0.15683078,0.14731060,0.14138407,0.11481791,0.10940330,0.08422607,0.06691543,0.05605779,0.04999868,0.04764971,0.04046509,0.03494273,0.01997015,0.02353604,0.03139428,0.01727889,0.02631736,0.02736146,0.02943574,0.03111055,0.02749176,0.01588855,0.01980990,0.02920588,0.03367491,0.02661887,0.02487937,0.03217474,0.02664083,0.03213229,0.04029012,0.05240957,0.07036806,0.09002932,0.10369319,0.12639017,0.13572814,0.13422810,0.12071316,0.10725337,0.09823229,0.09578249,0.09688429,0.10289887,0.12962865,0.14043842,0.14985503,0.16643690,0.19845649,0.24019654,0.26945668,0.31564005,0.36612267,0.40055922,0.43562447,0.46444245,0.47495972,0.47701298,0.43928903,0.41680266,0.36087597,0.31377175,0.26986414,0.22079614,0.16930985,0.13822457,0.10412645,0.09585916,0.06876164,0.06157288,0.05566553,0.06012871,0.05518576,0.04864845,0.04818693,0.05907374,0.05290541,0.05584772,0.05093375,0.05155770,0.04495132,0.03905433,0.04060832,0.03884702,0.03789327,0.05199835,0.04410356,0.05854764,0.06876838,0.07862294,0.08204973,0.09165737,0.11766936,0.12807981,0.15569764,0.15326296,0.17045357,0.19027967,0.21740749,0.22513734,0.23719861,0.22926204,0.24605614,0.24650257,0.21943176,0.23399195,0.22236323,0.22212022,0.21138044,0.21820955,0.24404537,0.25810173,0.28742401,0.31371059,0.29542520,0.29690204,0.27259769,0.24052528,0.21324783,0.16111261,0.13451919,0.09511150,0.07479633,0.06809155,0.06425971,0.04174604,0.04833562,0.03320688,0.05410926,0.04064411,0.03901209,0.05208164,0.04351047,0.04630614,0.04950817,0.05039268,0.05895113,0.05765613,0.06727238,0.07685736,0.08119375,0.09112747,0.11165391,0.11532739,0.12246987,0.11440241,0.11971407,0.12573522,0.12904786,0.11607736,0.12394293,0.10643822,0.10532856,0.10760075,0.09663500,0.09357935,0.08032478,0.08063879,0.08961589,0.09615642,0.09554508,0.11209569,0.12047858,0.13068465,0.16014565,0.20689727,0.21595786,0.26609243,0.28550860,0.32754734,0.38115547,0.42713131,0.48703836,0.51636603,0.55467977,0.53623976,0.56390657,0.57218893,0.53508481,0.51038903,0.47314011,0.43254827,0.37091340,0.33166887,0.28489887,0.24078875,0.20942146,0.19017176,0.16456936,0.15354099,0.13325246,0.13812974,0.13892277,0.12174851,0.13516386,0.11720037,0.12883975,0.11963984,0.11622269,0.10697189,0.11081961,0.09087162,0.09712257,0.09972218,0.10407746,0.12185594,0.13662773,0.16882273,0.21796692,0.25412576,0.31833304,0.36576801,0.41189047,0.45807757,0.50841467,0.53343761,0.56767507,0.56131826,0.56256482,0.54622378,0.50459224,0.53161378,0.53753690,0.53534058,0.53556025,0.57740443,0.56520199,0.54236592,0.53171920,0.47278122,0.42163061,0.34576206,0.29667758,0.22800546,0.17273067,0.12786605,0.10601227,0.09779867,0.07031282,0.07200457,0.07443557,0.06252652,0.07382233,0.06319008,0.06486389,0.06531933,0.06739913,0.07231761,0.05969704,0.07941657,0.07447316,0.07493604,0.06778932,0.08648115,0.08335724,0.08559846,0.08397005,0.08443758,0.07715689
0.02384915,0.03783723,0.03309261,0.02823492,0.03061754,0.03806393,0.03695113,0.04496468,0.03054149,0.03353742,0.02897440,0.01847196,0.02224676,0.01695408,0.01542881,0.01546539,0.02009100,0.01736304,0.02571397,0.01537408,0.01328564,0.02249980,0.01195701,0.03563609,0.04438522,0.04729998,0.04914040,0.04949658,0.05522599,0.04570038,0.04734340,0.04022168,0.03740486,0.02472915,0.03057086,0.02691670,0.02523552,0.02847719,0.03544240,0.03940376,0.02287891,0.03777372,0.04953418,0.05077684,0.04208648,0.03696338,0.03219694,0.04287436,0.03133868,0.03418378,0.02162651,0.02477364,0.03619989,0.03208780,0.02922706,0.02037637,0.03120107,0.03194602,0.03545905,0.02331641,0.02461564,0.03124855,0.03137706,0.03027721,0.02952246,0.02783429,0.03348340,0.02833442,0.03304715,0.03923293,0.03304722,0.03811966,0.05325240,0.03949428,0.04830865,0.05869930,0.07325780,0.08026014,0.09581256,0.10939195,0.12173331,0.15131667,0.19202715,0.24151632,0.30578130,0.35824517,0.43423474,0.50945947,0.54967604,0.62595547,0.66542167,0.68514435,0.69032950,0.65960280,0.64245728,0.62171777,0.57067255,0.54144638,0.47460769,0.42987956,0.40178095,0.35094299,0.31793014,0.26683940,0.22940518,0.21404700,0.18693136,0.15954396,0.15829159,0.18726308,0.19408722,0.23902689,0.25682750,0.28939497,0.32111818,0.34504885,0.33591912,0.32113475,0.29501310,0.25949173,0.22579857,0.19475634,0.15491784,0.12134944,0.10473246,0.09086161,0.09019695,0.08301804,0.10113308,0.10571923,0.11245314,0.12613881,0.13782609,0.14980788,0.15805968,0.16995753,0.17201272,0.15358148,0.16552281,0.17257890,0.14711322,0.14492732,0.13087112,0.11466774,0.12329654,0.11260686,0.08877323,0.09517344,0.09661247,0.09624940,0.08559753,0.10167895,0.10364138,0.10006087,0.11158852,0.11982637,0.12158555,0.11128818,0.11457946,0.09876951,0.09287103,0.08797809,0.07191816,0.07325479,0.06343111,0.05969578,0.06393114,0.06350217,0.06799351,0.07268877,0.07112940,0.07032301,0.07894528,0.07679503,0.08813659,0.10302396,0.10490002,0.10451407,0.11561669,0.15208870,0.16828180,0.18181702,0.20819752,0.22163561,0.23908039,0.24211014,0.26753982,0.27892515,0.27777085,0.26418920,0.25804564,0.25320298,0.22875018,0.22284100,0.19644700,0.19713815,0.18465652,0.17718998,0.16618044,0.15490976,0.16848713,0.17714557,0.18791219,0.20701518,0.24513929,0.26069395,0.29778182,0.33025194,0.36058831,0.41328474,0.45543833,0.51767390,0.55286339,0.60099117,0.66385353,0.71233740,0.74207708,0.77044878,0.79286560,0.79183351,0.77498812,0.76208630,0.71326553,0.67208913,0.61161381,0.53939778,0.48830303,0.44553131,0.39185818,0.36560454,0.32112608,0.29688207,0.27492625,0.25686607,0.25519611,0.26674411,0.23354966,0.24702273,0.23086238,0.19817879,0.19793251,0.20300492,0.20036897,0.20044522,0.20895941,0.23486355,0.26043304,0.28115463,0.33562828,0.37809580,0.44147989,0.50898810,0.52341115,0.54609270,0.58793496,0.56061941,0.57360944,0.55396932,0.53340508,0.48032291,0.44923839,0.38169811,0.34948512,0.30014248,0.28126054,0.26017039,0.22924163,0.21922393,0.20620405,0.20455558,0.18057980,0.16508165,0.15186206,0.12443142,0.12798100,0.12507249,0.11307397,0.11017356,0.11068177,0.11487650,0.11113071,0.11209352,0.11445433,0.10925872,0.11092705,0.11388536,0.12560358,0.12053216,0.13455178,0.12885058,0.13707600,0.14815681,0.16030608,0.15098537,0.13760248,0.15201130,0.15973853,0.16289209,0.15416162,0.14689059,0.15988931
0.04297907,0.05296782,0.05396640,0.05101117,0.04384553,0.04566347,0.05139775,0.05776441,0.03869060,0.03068421,0.04190808,0.03501349,0.02845731,0.02550792,0.02974653,0.02487743,0.02693534,0.02004486,0.01741232,0.02688691,0.03194025,0.02442043,0.02734777,0.03869306,0.04686902,0.05263098,0.05985183,0.06101597,0.06788665,0.06466879,0.05824600,0.05687018,0.05376102,0.05282853,0.05095033,0.07565107,0.08655107,0.09222364,0.10928096,0.12695004,0.14619255,0.14328910,0.14774824,0.12900162,0.12824385,0.11567374,0.10330768,0.08531626,0.07263864,0.06286747,0.06036440,0.04000332,0.04846341,0.04390663,0.04865248,0.04159755,0.03928721,0.03892150,0.03117418,0.04925720,0.03292493,0.03780605,0.04981125,0.04308631,0.04566378,0.03710411,0.03663400,0.05415046,0.04797595,0.04683079,0.04127939,0.05894301,0.06965168,0.07823026,0.09670185,0.11961035,0.13223373,0.15305451,0.15794524,0.15952403,0.16448445,0.18440665,0.18609399,0.19750207,0.22655510,0.25163127,0.28357310,0.31620012,0.34228323,0.37642463,0.38958849,0.38732976,0.38701632,0.37628534,0.39221608,0.37897419,0.37399158,0.36180059,0.38141591,0.35093734,0.35108444,0.32529264,0.29924311,0.27064869,0.22763034,0.20321668,0.16404026,0.14339179,0.12107415,0.10915037,0.09546808,0.08882414,0.09468850,0.08514129,0.08976219,0.08190906,0.08439703,0.07096032,0.07520546,0.08622309,0.07283004,0.07717839,0.07570406,0.07868358,0.08905041,0.08208881,0.08500554,0.09896091,0.11777341,0.12604220,0.14632004,0.15397434,0.16364837,0.18273611,0.21339874,0.23086435,0.23395500,0.23791968,0.26614401,0.27800510,0.27750650,0.29136917,0.29492797,0.28229269,0.27991346,0.26813552,0.24433860,0.23502599,0.21482093,0.20013086,0.19257007,0.18534470,0.18093965,0.18336816,0.19040717,0.16644442,0.17906783,0.14602116,0.13687801,0.13521692,0.12016592,0.10258254,0.09452849,0.08631901,0.08652300,0.08589039,0.08875783,0.08856889,0.08418926,0.08205213,0.09111348,0.09465537,0.09657256,0.11248564,0.11751303,0.13655443,0.13949185,0.15528113,0.18497295,0.21636413,0.25095228,0.26552687,0.28822162,0.33180426,0.35071817,0.37668377,0.37653630,0.39744500,0.38928099,0.38101868,0.37027986,0.35367847,0.33488031,0.31524816,0.28222411,0.24829384,0.24485130,0.21072531,0.20175617,0.21311644,0.19035680,0.20759039,0.21610931,0.22218411,0.25380840,0.26227556,0.27450755,0.29087438,0.30957802,0.33261688,0.34418722,0.36911296,0.38426626,0.37113080,0.36998164,0.38652032,0.37968207,0.39612357,0.37065128,0.33676859,0.30960242,0.30559603,0.26665371,0.25886317,0.23067412,0.22297382,0.21347734,0.21743345,0.20013278,0.19762371,0.21612862,0.21809437,0.22865433,0.25160199,0.25513679,0.24725627,0.22847171,0.23472252,0.23136262,0.22502633,0.19453668,0.17926993,0.16287297,0.15584606,0.14871989,0.15107123,0.15263195,0.15643674,0.15941510,0.18466162,0.21154625,0.21857655,0.26168298,0.29517036,0.33329971,0.35331269,0.38048064,0.40456097,0.41411398,0.45149416,0.44734472,0.45258837,0.42975109,0.43401102,0.40121169,0.40539522,0.39784008,0.39229367,0.37811144,0.34632921,0.33384215,0.29549896,0.27785423,0.23915372,0.21376743,0.17016908,0.16315003,0.13734147,0.14268637,0.13662887,0.12707028,0.13173169,0.13526580,0.14075893,0.14801284,0.15159948,0.14296671,0.15165077,0.16466931,0.17331745,0.18737197,0.17625342,0.19233605,0.20250592,0.19334973,0.19591575,0.20647008,0.20452476,0.20895554,0.21015616,0.22742824
