1000,1005,1010,1015,1020,1025,1030,1035,1040,1045,1050,1055,1060,1065,1070,1075,1080,1085,1090,1095,1100,1105,1110,1115,1120,1125,1130,1135,1140,1145,1150,1155,1160,1165,1170,1175,1180,1185,1190,1195,1200,1205,1210,1215,1220,1225,1230,1235,1240,1245,1250,1255,1260,1265,1270,1275,1280,1285,1290,1295,1300,1305,1310,1315,1320,1325,1330,1335,1340,1345,1350,1355,1360,1365,1370,1375,1380,1385,1390,1395,1400,1405,1410,1415,1420,1425,1430,1435,1440,1445,1450,1455,1460,1465,1470,1475,1480,1485,1490,1495,1500,1505,1510,1515,1520,1525,1530,1535,1540,1545,1550,1555,1560,1565,1570,1575,1580,1585,1590,1595,1600,1605,1610,1615,1620,1625,1630,1635,1640,1645,1650,1655,1660,1665,1670,1675,1680,1685,1690,1695,1700,1705,1710,1715,1720,1725,1730,1735,1740,1745,1750,1755,1760,1765,1770,1775,1780,1785,1790,1795,1800,1805,1810,1815,1820,1825,1830,1835,1840,1845,1850,1855,1860,1865,1870,1875,1880,1885,1890,1895,1900,1905,1910,1915,1920,1925,1930,1935,1940,1945,1950,1955,1960,1965,1970,1975,1980,1985,1990,1995,2000,2005,2010,2015,2020,2025,2030,2035,2040,2045,2050,2055,2060,2065,2070,2075,2080,2085,2090,2095,2100,2105,2110,2115,2120,2125,2130,2135,2140,2145,2150,2155,2160,2165,2170,2175,2180,2185,2190,2195,2200,2205,2210,2215,2220,2225,2230,2235,2240,2245,2250,2255,2260,2265,2270,2275,2280,2285,2290,2295,2300,2305,2310,2315,2320,2325,2330,2335,2340,2345,2350,2355,2360,2365,2370,2375,2380,2385,2390,2395,2400,2405,2410,2415,2420,2425,2430,2435,2440,2445,2450,2455,2460,2465,2470,2475,2480,2485,2490,2495,2500
0.00934149,0.01649059,0.02515173,0.03981488,0.04859264,0.06208735,0.06614218,0.05994611,0.04977524,0.05366848,0.03563375,0.02698340,0.00026772,-0.01282124,-0.01805103,-0.01768950,-0.02087981,-0.00961960,-0.01988460,-0.03182525,-0.03019384,-0.02043557,-0.00836276,-0.00149961,0.01675708,0.03784431,0.07702096,0.08328811,0.08651366,0.08020836,0.06982757,0.04567883,0.03180148,0.01570933,0.01602190,-0.00228267,0.00524465,-0.00383847,0.02254041,0.01948312,0.02357920,0.02834825,0.03963379,0.02094136,0.03800038,0.03109183,0.01837602,0.00573602,0.00430242,-0.01033212,-0.01511221,-0.01847876,-0.01790897,-0.00662799,-0.01702031,-0.01541196,-0.02213540,-0.01169752,-0.01921973,-0.01892833,-0.02370557,-0.02682408,-0.02096535,-0.01135761,-0.01251469,-0.01982877,-0.01673878,-0.02141178,-0.00789734,-0.01419655,-0.01756398,0.00021783,-0.01590045,0.00067859,0.00028162,0.00672975,0.02461302,0.03627695,0.04661036,0.05271112,0.05533927,0.06399106,0.06711235,0.07302833,0.11515033,0.13739004,0.17093571,0.20484189,0.25959994,0.27509330,0.29460494,0.31869018,0.34520002,0.34608457,0.36017841,0.38176732,0.40219717,0.40778196,0.44230127,0.46912871,0.49151836,0.51121805,0.49911685,0.47786023,0.42724566,0.36395545,0.32051063,0.25038651,0.17961041,0.15676458,0.13895570,0.11170347,0.11116284,0.12122898,0.12488390,0.13891353,0.12753299,0.13274731,0.12673672,0.10778408,0.09008212,0.07455922,0.05044487,0.04984771,0.03729966,0.04434022,0.05856606,0.06524131,0.10631297,0.12526807,0.15410012,0.20243465,0.24401361,0.27326559,0.29781921,0.33070540,0.34180044,0.35024216,0.34799640,0.32576158,0.32671814,0.30007137,0.25856513,0.22468257,0.19637568,0.16820729,0.13067246,0.11253440,0.10340972,0.07457046,0.06219727,0.04228316,0.04776118,0.03730152,0.03241210,0.02644969,0.02039941,0.02936712,0.02584872,0.01712325,0.00755283,0.00068103,0.00067855,-0.00344478,-0.00762052,-0.00452513,-0.01418865,-0.01064048,-0.01333375,-0.00592224,-0.01266053,-0.01031648,0.00502947,-0.00206784,0.00507365,0.01199001,0.00638977,0.01577038,0.02086104,0.03536327,0.03638813,0.05180722,0.05173543,0.06637988,0.08229073,0.08269679,0.09159332,0.09566307,0.10026456,0.10669887,0.10998793,0.09142179,0.09228020,0.07619518,0.09362132,0.08719176,0.08412788,0.10367648,0.10873341,0.12702023,0.14811653,0.18837404,0.21631186,0.26477332,0.31208216,0.37004774,0.44705923,0.47821393,0.50536525,0.57155617,0.61668901,0.63364035,0.62818796,0.62967992,0.64991857,0.60528305,0.60842479,0.57288792,0.57239645,0.55282194,0.48320872,0.46005572,0.43725101,0.38662006,0.34417684,0.32448664,0.30555372,0.27853870,0.28425688,0.29284417,0.30230821,0.32563975,0.36378073,0.38323574,0.42254411,0.43289161,0.44889487,0.45285740,0.41739768,0.39115405,0.34867956,0.30620738,0.25472193,0.20944945,0.18143403,0.14783355,0.14830492,0.12006823,0.13278876,0.15585397,0.18023211,0.20346146,0.23024778,0.27979954,0.33143608,0.35783615,0.39186537,0.41441030,0.43147076,0.44998417,0.44779039,0.43239700,0.39252351,0.36290030,0.32480860,0.28466837,0.22836970,0.20797536,0.16063342,0.14087260,0.12640484,0.10730770,0.09480734,0.06110585,0.05931544,0.02696919,0.02548723,0.01301673,0.00931369,0.00047354,-0.00198742,0.00264604,-0.00474735,0.00476400,0.00748047,-0.00087468,0.01192971,0.00390681,0.00101871,0.01156004,0.01320325,0.00792422,0.01938245,0.00814324,0.01527132,0.01761601,0.01971486,0.03460257,0.02357162,0.02046703,0.02374052
-0.00767098,-0.00446783,-0.00140473,0.01039263,0.00717963,0.02809144,0.02096730,0.01706810,0.00597090,0.01499018,0.01728909,-0.00086423,0.00057725,-0.01363865,-0.01189026,-0.02013050,-0.01090137,-0.01789087,-0.01597511,-0.01879700,-0.01334348,-0.00914867,-0.00709092,-0.01223342,0.00584968,0.00707022,0.02718133,0.02908419,0.03353530,0.03429194,0.03390989,0.02580061,0.02096661,0.01034200,-0.00143806,-0.00036385,0.00515602,0.00422338,0.01746327,0.01894724,0.02545335,0.03174242,0.02387700,0.03722623,0.03332504,0.03042252,0.02618499,0.01528219,0.01890627,-0.00074563,0.00646179,0.00634147,-0.00254000,0.00681792,-0.00015005,0.00108669,-0.00082182,0.00172704,0.00495478,-0.00292554,0.00459923,-0.00272271,-0.00454997,-0.00223032,0.00130565,-0.00239004,0.01310130,0.00278839,0.02046500,0.00139704,0.00828913,0.01083538,0.00294627,0.01851640,0.03162460,0.03150738,0.03743388,0.04862465,0.05705523,0.05924456,0.07037348,0.07418052,0.07879283,0.11504632,0.13401994,0.17331901,0.19296581,0.23564891,0.28347050,0.30272165,0.34068155,0.34945580,0.37068012,0.38104710,0.38516494,0.38497359,0.37590355,0.36929959,0.36680744,0.35422911,0.33226035,0.32600389,0.29464975,0.28626758,0.26151935,0.23059943,0.18991718,0.16032008,0.13112827,0.13052662,0.13671539,0.12890467,0.16344949,0.18238521,0.18514002,0.19174312,0.20225225,0.20130788,0.18548519,0.16921539,0.15808546,0.13547143,0.09749461,0.09731089,0.06827851,0.08022321,0.07461935,0.08069708,0.09242109,0.10570733,0.11929630,0.14443826,0.16818791,0.17206672,0.18726071,0.22187411,0.21489388,0.20183769,0.21752443,0.20173425,0.19679645,0.19673641,0.17866087,0.17021165,0.16323175,0.13269314,0.12768302,0.11120399,0.10543274,0.08208953,0.08773822,0.08483408,0.07403829,0.08392906,0.08624932,0.08660246,0.07736639,0.08402782,0.07430101,0.06547717,0.06227542,0.05401648,0.05450047,0.04635363,0.06045244,0.05046256,0.04841825,0.04996943,0.04376874,0.04910108,0.04580428,0.04109746,0.05324573,0.04798209,0.04807958,0.06397645,0.05586079,0.06374927,0.06427713,0.07089097,0.07312374,0.07623095,0.08514682,0.08915093,0.09026568,0.10761286,0.09783253,0.10526280,0.09212216,0.09895681,0.10234347,0.10420001,0.09267972,0.10358633,0.09389973,0.10967782,0.10772269,0.10397714,0.11570226,0.11564190,0.14964875,0.16154535,0.17353976,0.19866988,0.23273280,0.27462682,0.28327235,0.33892857,0.37467183,0.39150630,0.42136477,0.45998308,0.50495262,0.50846938,0.52478651,0.54632195,0.55859695,0.57749057,0.57136427,0.56803244,0.55755364,0.52772560,0.50811685,0.48236894,0.43209088,0.40784348,0.37471198,0.32339789,0.31646784,0.30257841,0.29982275,0.28704507,0.29039192,0.29067744,0.29567261,0.30793124,0.30185790,0.28017564,0.28173940,0.26273525,0.24636295,0.22549372,0.20973378,0.19665057,0.17467069,0.18864211,0.20430575,0.19439717,0.21753525,0.25510757,0.29232523,0.32358269,0.35824174,0.39656735,0.42121529,0.43662672,0.43325737,0.46185902,0.44189264,0.43516014,0.40026175,0.39419636,0.34514764,0.31959332,0.30119151,0.26081009,0.22581883,0.21560770,0.20803493,0.18811821,0.17664513,0.16101304,0.14744380,0.14822028,0.12097027,0.10301169,0.11128223,0.09891312,0.09304307,0.09012080,0.08999019,0.09667027,0.09125160,0.08926153,0.08125798,0.09004790,0.09175260,0.09424121,0.09798923,0.09160466,0.10036742,0.09915993,0.10209183,0.10652946,0.10571022,0.10420798,0.10262931,0.09498222,0.11110178,0.10215721,0.10466723
0.07143890,0.08222606,0.08987995,0.10126194,0.10414076,0.11677788,0.10343942,-1.36899627,0.11280931,0.09640120,0.09414924,0.08057406,0.06464457,0.06169947,0.05227444,0.05993960,0.05706886,0.04873584,0.04466757,0.05282214,0.05474026,0.05500722,0.06167976,0.08250999,0.08397352,0.10534467,0.12584135,0.13439931,0.14305380,0.13359157,0.12273795,0.11026067,0.08906758,0.09485062,0.07729920,0.10019476,0.09903615,0.11963775,0.12155666,0.12843727,0.15388792,0.15135512,0.16444150,0.15123201,0.15419404,0.15338121,0.12776914,1.47738563,0.10776616,0.08628213,0.07165604,0.07278337,0.07929614,0.05336206,0.05909758,0.07350045,0.06738456,0.07152956,0.07494711,0.06811386,0.06675083,0.07384516,0.07563340,0.07014875,0.07126272,0.06826474,0.06485935,0.08008722,0.07120648,0.07637055,0.08528229,0.09130624,0.09969025,0.09245647,0.11458397,0.12751270,0.14624986,0.16350458,0.16899592,0.17035176,0.16885887,0.15924278,0.16255759,0.19628026,0.19784735,0.20858820,0.24982109,0.28547932,0.27865884,0.32483516,0.33160704,0.34809889,0.37594185,0.36336097,0.36954634,0.38875105,0.41658514,0.41088139,0.43433867,0.45561335,0.45847909,0.44629514,0.46361134,0.43734006,0.37827157,0.34925607,0.30392550,0.25622858,0.21507347,0.19442295,0.17284063,0.17255921,0.15824304,0.17509714,0.19126637,0.17478095,0.17985885,0.17304509,0.16159167,0.15067344,0.14918510,0.14433888,0.13429726,0.12778849,0.14538347,0.14073429,0.15219382,0.17225364,0.19545391,0.22039288,0.24954616,0.26837477,0.30648085,0.34268455,0.35975972,0.38447060,0.39383015,0.40280749,0.41829661,0.40694126,0.39765842,0.39137865,0.37148506,0.35247852,0.32000166,0.29626123,0.28833257,0.25683402,0.23501339,0.21521185,0.19666116,0.17798486,0.16762088,0.16312603,0.15715313,0.15758566,0.14400241,0.14248279,0.13487542,0.13206142,0.12948948,0.12085900,0.12153717,0.10828540,0.11080331,0.11198694,0.11472738,0.11287094,0.11276492,0.12061602,0.10623733,0.11309470,0.11758198,0.12411898,0.12996276,0.14523383,0.13627286,0.14710907,0.14974319,0.16635928,0.18535929,0.17820590,0.20323826,0.21424990,0.23760410,0.23455265,0.25251556,0.25097278,0.24256504,0.24162601,0.25682737,0.23729218,0.24236505,0.21944636,0.22450875,0.22877494,0.21020314,0.20783694,0.22675285,0.22638278,0.25768055,0.29897014,-1.08696560,0.35276843,0.38731724,0.41673035,0.48260557,0.49384743,0.54796211,0.57628002,0.58221569,0.58126194,0.59360556,0.59684456,0.56981957,0.56456021,0.54616690,0.53479036,0.49466646,0.50388609,0.45279594,0.41000244,0.38220661,0.37586783,0.34908145,0.32585542,0.33817132,0.33277744,0.34885954,0.34941471,0.35762210,0.36990586,0.41331827,0.44785991,0.46933195,0.47438043,0.47382271,0.44946852,0.43462012,0.39990108,0.38182985,0.32974692,0.31187734,0.26184142,0.24955789,0.23891160,0.24237752,0.23141227,0.23375070,0.26036528,0.27317314,0.29755366,0.33037291,0.37764815,0.38557227,0.44005260,0.48112149,0.49834963,0.51196331,0.53413625,0.53277047,0.53887599,0.50835536,0.46861281,0.44806278,0.42652562,0.37879814,0.36123714,0.33871957,0.31440565,0.31450853,0.27629798,0.25350775,0.23418923,0.22197764,0.19508556,0.17530441,0.17001214,0.16332862,0.16443026,0.15708853,0.15895156,0.16900991,0.16204689,0.15410259,0.15258351,0.16458428,0.16513888,0.16095499,0.17382336,0.19771074,0.17148318,0.17767523,0.18294645,0.18586214,0.18160576,0.19099022,0.19455669,0.18657934,0.18306100,0.19161028
0.01734840,0.03201888,0.03049394,0.03243984,0.03878092,0.05105772,0.03700211,0.03520643,0.04458434,0.03852318,0.02562259,0.02026878,0.01032564,0.00149199,0.00966471,0.00493359,0.00203573,0.00810227,-0.00499363,0.00745028,0.00816893,-0.00594699,0.01428445,0.02303400,0.02512481,0.03813262,0.04986188,0.04976195,0.04968161,0.04581917,0.04476596,0.03442203,0.02380883,0.03331889,0.03681581,0.04387439,0.05659654,0.08490832,0.11219046,0.12831459,0.13968058,0.15727662,0.15128881,0.15511677,0.12710455,0.11517962,0.10734445,0.07899163,0.04958381,0.03458036,0.02711010,0.01712582,0.01216981,0.00674317,0.01475978,0.00399062,-0.00409852,0.00943289,0.00033997,0.00571931,0.00426408,0.00366864,0.00004636,0.00311631,0.00307564,0.00660016,0.00185342,0.01571630,0.00819587,0.01056060,0.01161424,0.01526328,0.03371512,0.04506203,0.07610549,0.09419269,0.11357611,0.12646240,0.14481386,0.14336005,0.13288962,0.11856682,0.11751650,0.12717773,0.11919444,0.14969769,0.15967071,0.18833905,0.22285238,0.22931688,0.28653967,0.28844834,0.29919475,0.32450722,0.34886686,0.36488585,0.39645171,0.39659973,0.40995985,0.41218728,0.37761606,0.38085448,0.34084849,0.30983783,0.25197518,0.22441259,0.16288395,0.13280059,0.10206433,0.08455758,0.06752140,0.05367990,0.05494244,0.07522734,0.07703098,0.06317279,0.06642195,0.06269017,0.07118240,0.05613016,0.05262732,0.04289909,0.03775756,0.03300834,0.04007647,0.04497631,0.05142134,0.05968652,0.07274489,0.09184158,0.11573240,0.11920974,0.16456777,0.17553558,0.19840321,0.22114132,0.24069601,0.25942539,0.28006524,0.30584729,0.29755451,0.31171572,0.31968415,0.32345462,0.29600593,0.26592161,0.26304434,0.24854768,0.22802184,0.18988949,0.19287234,0.17764599,0.18368946,0.17590819,0.18018262,0.17656592,0.16584055,0.17530801,0.14186075,0.11386729,0.09492144,0.08087290,0.04763028,0.05018918,0.02397625,0.03511260,0.02604033,0.02674007,0.02153378,0.02421212,0.02496060,0.02290225,0.03576294,0.04153756,0.03519854,0.03973806,0.04944638,0.05528782,0.06526258,0.08084207,0.10190553,0.12647049,0.13084531,0.13931630,0.16210614,0.15701546,0.15906216,0.17877770,0.17739915,0.17618142,0.16376344,0.16843137,0.15912725,0.13038669,0.13452832,0.12447470,0.12599613,0.10445667,0.10360552,0.12224996,0.13511786,0.14887161,0.16873259,0.19589078,0.21501418,0.24329709,0.28526351,0.30517559,0.34997122,0.36725543,0.39944248,0.42789585,0.45223380,0.47513286,0.50679074,0.48532883,0.48605314,0.47926685,0.46753533,0.44553863,0.40614709,0.37652978,0.35173754,0.31145975,0.29266716,0.25492822,0.23553838,0.21096794,0.21552780,0.19812844,0.19750021,0.22455193,0.22910691,0.23082072,0.24264557,0.25059277,0.24117772,0.24244112,0.22821726,0.21697885,0.17714027,0.16209933,0.13826780,0.13165193,0.12837431,0.11483863,0.12523995,0.13421771,0.16061796,0.17954086,0.21141133,0.24962112,0.29955779,0.34317806,0.36399435,0.41906960,0.48847157,0.48924622,0.50746312,0.51957397,0.52653434,0.53653500,0.53334643,0.52787292,0.50362563,0.48888338,0.45960463,0.46291949,0.45230598,0.41622388,0.38663309,0.32450181,0.28731279,0.24095035,0.17533165,0.14093087,0.10729957,0.10219486,0.08983605,0.06786568,0.08271630,0.05352029,0.06914458,0.06834592,0.07351137,0.08085437,0.07338914,0.08261011,0.07198611,0.08118619,0.09668900,0.08285968,0.09248189,0.09418510,0.10695758,0.09628166,0.09779689,0.10260750,0.09931402,0.10374970,0.10601931
0.05272594,0.07534466,0.08080618,0.09351110,0.10728114,0.11871027,0.11533462,0.13359520,0.11818753,0.10797297,0.08699479,0.06586518,0.05742368,0.05032141,0.03336145,0.03343647,0.02286354,0.02914042,0.03286652,0.02337425,0.02563658,0.04659655,0.04590363,0.05173402,0.08137749,0.10409805,0.12868890,0.14073108,0.15973163,0.14545647,0.12411723,0.11049279,0.09282040,0.07175584,0.06068080,0.04764920,0.05288594,0.04487008,0.04675248,0.04596208,0.05900999,0.04870223,0.05867219,0.04879984,0.06616067,0.06327702,0.05291181,0.05144674,0.04163502,0.04153278,0.03630068,0.03427463,0.03475149,0.03938749,0.05369520,0.04625263,0.05128390,0.03977528,0.04058028,0.03817228,0.04130397,0.03426952,0.03933880,0.05288541,0.04915724,0.05271926,0.05081079,0.03988100,0.05559878,0.04697906,0.04591303,0.04770242,0.06017118,0.05647782,0.05512903,0.06447788,0.07101068,0.08084575,0.07113310,0.08197873,0.09587020,0.10958082,0.10634810,0.12794309,0.15181959,0.16196960,0.19579385,0.21781411,0.24719427,0.26164829,0.29425344,0.30800452,0.32305116,0.36059650,0.37890902,0.40494299,0.43211307,0.48045104,0.52442012,0.53697721,0.59100451,0.60519062,0.61130940,0.59323911,0.52759799,0.47484310,0.40647221,0.33526522,0.26924125,0.23037761,0.20396029,0.17853440,0.16249153,0.16384967,0.17683171,0.18114463,0.18605358,0.17452147,0.16963496,0.15986986,0.14481048,0.15268487,0.11741143,0.12306038,0.12334011,0.12870314,0.13903103,0.17622714,0.20474316,0.23003411,0.27327181,0.30579600,0.36003746,0.40682425,0.42805598,0.45302855,0.47523743,0.45965442,0.45790707,0.41865041,0.40265084,0.36298751,0.31397783,0.26601854,0.24864838,0.21448529,0.18532183,0.16203229,0.13372489,0.13013757,0.12883659,0.13303267,0.12683469,0.11326214,0.12776534,0.13848285,0.13572377,0.12830633,0.11733578,0.11206325,0.11792670,0.10639126,0.09998697,0.10035611,0.08905429,0.09543622,0.08191115,0.09170074,0.08851360,0.08678322,0.09894024,0.07872617,0.09552849,0.08842621,0.10615131,0.10121229,0.10315062,0.11446968,0.11019715,0.11487907,0.13404089,0.13714251,0.13710416,0.14939855,0.15798048,0.16172888,0.16141253,0.16373001,0.17391385,0.17766730,0.16343495,0.18512285,0.17500653,0.16955365,0.17606390,0.18039678,0.17912694,0.19585700,0.22575545,0.24957993,0.28099217,0.32296193,0.37057749,0.42356253,0.47475110,0.54650717,0.62267429,0.65502048,0.69962045,0.72850175,0.76646368,0.78326465,0.76319701,0.77160312,0.77233397,0.76119414,0.70927815,0.67461924,0.62985436,0.62095773,0.57573323,0.51323899,0.48005761,0.42721061,0.41574198,0.39015982,0.38278975,0.38533305,0.37295622,0.40415722,0.41830646,0.48093332,0.52384750,0.54209878,0.58851273,0.61695904,0.62088560,0.59486325,0.57872021,0.52935549,0.48904181,0.45001507,0.38856576,0.35112663,0.31132424,0.27979744,0.25492792,0.26148675,0.25119788,0.25266241,0.28756434,0.31489112,0.33743131,0.36656712,0.42100704,0.46386287,0.51779413,0.53224606,0.54950479,0.58598784,0.55596636,0.53828798,0.51045458,0.47411854,0.43313224,0.36093070,0.33099885,0.29363961,0.26274670,0.24954645,0.23018294,0.21175008,0.18654804,0.19785408,0.16159795,0.16267099,0.14606054,0.14728124,0.13689906,0.13205818,0.13829526,0.14075681,0.13896077,0.13697154,0.13754203,0.13432539,0.14221035,0.14415213,0.14488096,0.14683970,0.14645743,0.15944157,0.16536962,0.14796330,0.15950301,0.14628546,0.16494056,0.17269490,0.16223698,0.16538047,0.14948239
0.01541153,0.01845186,0.01938638,0.02012710,0.01989076,0.01852940,0.03190794,0.01766007,0.01913352,0.01891120,0.02188196,0.01520546,0.01741685,0.01756963,0.01265159,0.01337062,0.02157165,0.00939561,0.01658625,0.00713844,0.00346201,0.01988208,0.02188618,0.01360859,0.02274733,0.02816107,0.03119294,0.04834600,0.03053008,0.03436037,0.03489512,0.03062295,0.02643862,0.02937929,0.03134824,0.02924714,0.04407388,0.04120902,0.04726966,0.04705497,0.06279786,0.06757306,0.06963303,0.06259087,0.06406561,0.05653437,0.05255907,0.05081801,0.04055265,0.04558917,0.02622548,0.03329117,0.03856694,0.03671535,0.03373363,0.04655248,0.03674720,0.03893320,0.03360558,0.03888613,0.03293974,0.03895791,0.04520562,0.04389516,0.03957628,0.03885375,0.04234977,0.04819871,0.04203860,0.04658365,0.04326867,0.04815207,0.05114924,0.05566063,0.06867919,0.08131158,0.08308025,0.07904695,0.10980812,0.11466901,0.12752373,0.13269167,0.17717950,0.21312811,0.25899182,0.30681072,0.38552276,0.46293967,0.49662601,0.57650965,0.62800276,0.66081465,0.66845597,0.67148780,0.64428011,0.61900029,0.57816218,0.51117731,0.45478435,0.39726071,0.36415710,0.31195608,0.27121010,0.22812893,0.20205056,0.17386837,0.16366844,0.16199161,0.14578400,0.16625463,0.19165939,0.21272651,0.25194235,0.31182434,0.31629863,0.36400856,0.36625656,0.37164588,0.35982289,0.32606224,0.26729556,0.24138506,0.20128220,0.16044490,0.13182468,0.11573317,0.10825162,0.09711240,0.09785746,0.09750623,0.10887176,0.10879253,0.11613407,0.12508695,0.12696620,0.14744260,0.13161499,0.15507169,0.15146940,0.14408041,0.14990786,0.15478180,0.14367510,0.15462234,0.15602502,0.15467024,0.15005048,0.13882767,0.13289613,0.13016772,0.12785838,0.11651680,0.12504879,0.13859014,0.12999801,0.13978666,0.13801448,0.13026198,0.11966988,0.11955422,0.11515153,0.10553292,0.09481626,0.09625422,0.09726096,0.09783040,0.09821572,0.09038707,0.08769700,0.09144616,0.09812909,0.09735212,0.10376093,0.09787456,0.10581968,0.11586450,0.11894663,0.11556460,0.12816737,0.14132837,0.14665998,0.15736548,0.16328583,0.17789704,0.19208809,0.20616223,0.20288344,0.22200756,0.20802236,0.21031218,0.21859607,0.21011390,0.19335446,0.19779181,0.19114519,0.18230154,0.16626495,0.17211430,0.15855791,0.15150572,0.15369126,0.16251312,0.16980317,0.17199523,0.19758102,0.21984883,0.23082068,0.26860964,0.29537309,0.33795181,0.38016941,0.42546181,0.48739843,0.55588465,0.61530135,0.66030955,0.70055018,0.77240437,0.79037384,0.82920009,0.83330028,0.80056450,0.77756465,0.76226814,0.70917838,0.61847966,0.57578395,0.52649033,0.46363818,0.39437226,0.36049176,0.32142720,0.28634644,0.27355370,0.24196032,0.23610423,0.23086082,0.21588881,0.20991791,0.20350428,0.18700793,0.19000134,0.19029607,0.21123437,0.22803419,0.24101367,0.28139206,0.31267754,0.35151458,0.41161508,0.46327306,0.51219792,0.56612406,0.59929749,0.61565860,0.62570705,0.61687811,0.60091624,0.57405101,0.53978821,0.49985658,0.42835416,0.40549767,0.37066196,0.34109956,0.28811877,0.29006970,0.28192445,0.25801722,0.24955041,0.24767187,0.23508528,0.21583158,0.20871379,0.19880613,0.17909572,0.17233657,0.15676230,0.15479082,0.15695939,0.15377725,0.15637841,0.15625593,0.15758727,0.15535768,0.15904771,0.15989564,0.17151798,0.16825072,0.16508047,0.17412142,0.17669523,0.16704363,0.18049214,0.19029195,0.16664460,0.19025620,0.19297972,0.18304392,0.19225919,0.18631643
0.03460873,0.03013747,0.04795978,0.05269462,0.05050280,0.05673719,0.06494729,0.06005516,0.05494050,0.05032492,0.03679755,0.04164367,0.02331608,0.02683524,0.02371826,0.01518965,0.02252821,0.03099231,0.02026819,0.01570081,0.02193854,0.02803567,0.02691214,0.02984558,0.02808648,0.04549907,0.05273034,0.06314490,0.06635832,0.06027751,0.04248187,0.03723089,0.03310862,0.03665425,0.02984075,0.04307306,0.04205100,0.04941609,0.05940511,0.06505024,0.06191545,0.08870461,0.08474698,0.08348326,0.06582330,0.05269233,0.04641351,0.04041777,0.04292671,0.03615785,0.03367155,0.03321315,0.02196010,0.01923815,0.01432959,0.01369716,0.00896311,0.01720458,0.01595629,0.01203582,0.00978800,0.01616330,0.02040905,0.01402392,0.01499316,0.01068268,0.01222899,0.01196789,0.01237364,0.01132332,0.01758828,0.02444820,0.01652366,0.03464226,0.03311882,0.04302579,0.04338491,0.05109770,0.07630385,0.07091986,0.08608658,0.08729135,0.09811504,0.12053662,0.13478998,0.14332666,0.18835419,0.24694713,0.29591707,0.31901911,0.34984431,0.37427389,0.41584910,0.41144065,0.42682430,0.44388678,0.44202940,0.43198089,0.43251655,0.39445717,0.37248979,0.35074732,0.32056099,0.27872568,0.25527263,0.19614929,0.16835445,0.13101669,0.11641271,0.10176816,0.10231555,0.12377763,0.12708927,0.15847385,0.15937657,0.17310788,0.18810849,0.15911855,0.15162058,0.14316297,0.12275599,0.09951983,0.07279189,0.04931012,0.04972944,0.04072586,0.03038268,0.03965172,0.05567136,0.05616466,0.06088523,0.07914817,0.09423006,0.11327655,0.13060131,0.13076137,0.14205444,0.15986537,0.16201018,0.16737738,0.14730253,0.14714908,0.15451069,0.13426069,0.13348270,0.12083195,0.10578272,0.10902105,0.09127822,0.08256066,0.08284912,0.08796126,0.08363220,0.09687011,0.10309767,0.10379911,0.12380636,0.12079473,0.10722895,0.07315583,0.06771083,0.05141841,0.02905719,0.02421308,0.00518782,-0.00052098,-0.00301474,-0.00465850,-0.00734351,0.00214473,-0.00838081,-0.00509277,-0.00546132,0.00984588,-0.00466017,0.00403384,0.01320070,0.00068572,0.00596475,0.01265271,0.01205797,0.03059500,0.02682750,0.04032325,0.04248035,0.04402555,0.05265712,0.04801583,0.05666745,0.04335148,0.04519950,0.05373007,0.03272253,0.04379940,0.03629894,0.03377495,0.03257819,0.04487354,0.03360220,0.05338082,0.06151172,0.06985367,0.08880477,0.11422172,0.13019741,0.15135245,0.19395429,0.21937285,0.25854207,0.30060821,0.34675500,0.39816465,0.42715388,0.46593070,0.51121313,0.53954385,0.54552778,0.57527122,0.57624321,0.59388198,0.58483145,0.54872274,0.49885108,0.47401563,0.41003258,0.37240799,0.31338061,0.26987224,0.23407794,0.21605086,0.19052931,0.18447388,0.16488184,0.17289440,0.16315821,0.17297119,0.16680622,0.15121398,0.14280590,0.13063609,0.11766756,0.09925956,0.09571615,0.07881025,0.06898715,0.08726961,0.09908358,0.12743991,0.15699150,0.19205707,0.23533742,0.28161482,0.32078342,0.35744468,0.39542273,0.42732561,0.42107692,0.44096016,0.42752403,0.41815330,0.38695800,0.36604800,0.33404446,0.31889121,0.28221640,0.26430654,0.25164347,0.22528905,0.21750591,0.21880863,0.19079738,0.16164465,0.13838057,0.09990576,0.07055020,0.04495498,0.01676209,0.01551946,-0.00096810,-0.00750631,-0.01300214,-0.01695740,-0.02654084,-0.01461159,-0.00418624,-0.01009705,-0.01624960,-0.01897308,-0.01344775,-0.01097582,-0.01275376,-0.00711631,-0.01550068,-0.00447324,-0.00846690,-0.01146797,-0.00963286,-0.00606241,-0.00372577,-0.00714059,-0.00457527
0.02685690,0.02959494,0.03011322,0.03639341,0.03336842,0.03749027,0.04228666,0.03878360,0.04369362,0.03320602,0.02554024,0.02085607,0.02057323,0.00585732,0.00789571,0.00679136,0.00037359,0.00529607,0.01250425,0.00571316,-0.00006127,0.01460768,0.01054189,0.01804941,0.01855846,0.03796173,0.03849281,0.06091707,0.05571848,0.03884026,0.03717027,0.04694774,0.03615399,0.03170973,0.02820401,0.02705721,0.04237565,0.06304338,0.06975661,0.08609004,0.10123150,0.10303345,0.11813303,0.11250447,0.10241512,0.09950377,0.07972815,0.06468420,0.05224877,0.03950133,0.03065445,0.03478329,0.01371089,0.00256600,0.00631945,0.02106448,0.00850567,0.00252904,0.00729935,0.00866916,0.01504173,0.01535117,0.02248290,0.01198973,0.01131609,0.01413765,0.00917045,0.01189862,0.01394210,0.01306754,0.02113764,0.01896066,0.03485017,0.04081667,0.05131186,0.07772198,0.09081919,0.10315663,0.12145717,0.12010909,0.11613982,0.13552069,0.13376814,0.14773448,0.17379236,0.18234705,0.22896923,0.25167478,0.26994775,0.31592072,0.31728385,0.33048714,0.33724949,0.34265007,0.34169487,0.32280888,0.34206931,0.33115594,0.33646971,0.33278153,0.32841206,0.31978986,0.29949054,0.26536759,0.23992265,0.20625342,0.16859205,0.12877348,0.12559778,0.09227101,0.07281827,0.06171126,0.07114464,0.07162732,0.07215557,0.07137974,0.07868063,0.07340231,0.07031068,0.06553103,0.05256731,0.05706493,0.05639328,0.04267901,0.03883381,0.04423188,0.04040694,0.05872055,0.07247534,0.07665002,0.10717157,0.11202350,0.11860592,0.15232143,0.17400227,0.19145409,0.20757655,0.22320133,0.24546922,0.23473320,0.25172275,0.24136345,0.24505869,0.23845546,0.23903491,0.22082134,0.20961592,0.17929232,0.17140581,0.15359051,0.13748033,0.10638416,0.11209614,0.10233249,0.10486177,0.09803413,0.09463685,0.10357191,0.08041707,0.07356720,0.06850789,0.05562638,0.03919938,0.03836036,0.03441627,0.03307202,0.03577579,0.02839497,0.03034205,0.03382023,0.02830117,0.04192712,0.03353441,0.03493298,0.04060989,0.07459426,0.05591695,0.09046801,0.10169400,0.10091474,0.13435301,0.15233555,0.17843202,0.20243187,0.23083233,0.27535531,0.27982774,0.28967929,0.28292506,0.30318906,0.29378824,0.26079276,0.24221666,0.22981483,0.21602387,0.18704265,0.17196548,0.15937707,0.13634963,0.14146971,0.14526917,0.14202775,0.15628029,0.16537214,0.19529803,0.22018042,0.24329612,0.25858514,0.26877349,0.29295900,0.33503063,0.32254289,0.35309510,0.35113081,0.36780279,0.35670717,0.35128938,0.34618502,0.34195258,0.32041140,0.30658151,0.27135741,0.27180337,0.23310809,0.20915925,0.20971023,0.18089065,0.17579822,0.16516413,0.17289804,0.16923956,0.16813630,0.19584123,0.20682386,0.21806894,0.22788990,0.22948121,0.21869730,0.20533812,0.18691940,0.17520432,0.16781487,0.14286730,0.13004228,0.11518650,0.11643104,0.09693412,0.09898316,0.11059335,0.11800903,0.13462766,0.15213694,0.17745656,0.20649474,0.23440769,0.26460375,0.29668583,0.33639357,0.34866626,0.36923677,0.36334574,0.37189361,0.37879342,0.35022778,0.32561807,0.32410243,0.30046784,0.28960139,0.27628982,0.25810022,0.23229119,0.20874197,0.17683893,0.16327421,0.13058078,0.11531406,0.09575538,0.07613842,0.06084144,0.05495802,0.04928386,0.05415270,0.05244514,0.05671093,0.06152043,0.06761957,0.06670933,0.07688253,0.06795934,0.07598904,0.07065954,0.08678557,0.09295618,0.08865628,0.08661490,0.09079468,0.10048501,0.10109136,0.10156979,0.11217797,0.11243909
0.07552606,0.05939772,0.07571657,0.08079816,0.08128094,0.09732005,0.08887510,0.10202741,0.06832296,0.08512523,0.07155828,0.07392554,0.06926094,0.06175763,0.06423312,0.05156858,0.04507867,0.05201026,0.06169949,0.05550115,0.04842982,0.05665951,0.06731330,0.06273583,0.08239459,0.08713115,0.09593789,0.10263566,0.10831466,0.10487333,0.10327973,0.09984628,0.08351872,0.07746877,0.08658803,0.07835901,0.08306517,0.08988597,0.10340806,0.09933024,0.12158092,0.11559585,0.10766900,0.11600384,0.11434612,0.11275125,0.10945421,0.09579840,0.08692450,0.08062731,0.08847445,0.07201818,0.07503507,0.08465036,0.06653690,0.06528718,0.08340782,0.07597244,0.06806162,0.06991118,0.08084340,0.07869233,0.07891390,0.07953459,0.08177376,0.08921218,0.08457955,0.07853107,0.07649042,0.07894369,0.07414131,0.08194781,0.09062595,0.11548593,0.10349883,0.11164910,0.12949380,0.14023767,0.13468036,0.15311604,0.14372940,0.16713591,0.18689001,0.20539666,0.24411841,0.28839197,0.32417612,0.36051889,0.41134676,0.43339158,0.46763976,0.49365639,0.51704694,0.52620975,0.54332424,0.50264003,0.51693432,0.47534376,0.46378251,0.43751257,0.43744995,0.43481001,0.41476304,0.35880192,0.35447984,0.31642702,0.26324916,0.24622867,0.21668120,0.20019197,0.19856639,0.20683297,0.22597388,0.23960810,0.25893440,0.26275883,0.26467188,0.25731812,0.25816177,0.22947068,0.21391401,0.18875041,0.17901309,0.15296481,0.15929428,0.14462202,0.14235960,0.15082083,0.15270692,0.16296539,0.19488963,0.20422633,0.21239931,0.23229827,0.26189670,0.27864480,0.28816415,0.30486009,0.30378343,0.29469052,0.29063038,0.28176354,0.27518991,0.26681749,0.25779680,0.24073435,0.22287429,0.20997313,0.21363392,0.19681934,0.20185303,0.17276189,0.17898594,0.17146457,0.18030649,0.18064564,0.19016799,0.17723520,0.16807041,0.17648475,0.15464631,0.15182256,0.13173647,0.13473574,0.13698244,0.12219233,0.11856174,0.12087317,0.11985337,0.12620210,0.13311085,0.12486802,0.13151946,0.12760631,0.13689497,0.14702011,0.15145003,0.16241839,0.16757951,0.16814557,0.18018665,0.20188657,0.21167701,0.23265502,0.24189370,0.26714578,0.26916793,0.28480700,0.27889323,0.27058304,0.27888966,0.27071279,0.24926707,0.25169430,0.23642569,0.23382754,0.23437933,0.20884044,0.22046448,0.21572335,0.21282814,0.24344686,0.24623742,0.27847780,0.31230930,0.31837685,0.35922054,0.40994418,0.42100963,0.47905118,0.48311260,0.50665522,0.54427647,0.58109803,0.62158856,0.64900212,0.63858431,0.65843220,0.66551556,0.63844164,0.64219829,0.63615384,0.59553833,0.55673070,0.52140707,0.48602933,0.43634824,0.42067902,0.39116361,0.36262728,0.37346116,0.35266330,0.35160929,0.35747594,0.37311062,0.35665736,0.36700801,0.35186644,0.34837839,0.31932604,0.31594120,0.29724258,0.27933416,0.25573668,0.25372332,0.25753557,0.24867763,0.25869065,0.28451993,0.32120110,0.33338738,0.39901815,0.42552030,0.46950264,0.49051959,0.51939505,0.53283091,0.52718538,0.54658775,0.52531878,0.52007982,0.49282346,0.45949644,0.42679491,0.43063178,0.39012297,0.35643295,0.35001185,0.32513433,0.31100709,0.29485916,0.28008900,0.26858757,0.24285692,0.23299015,0.20963551,0.19032703,0.17477706,0.17117822,0.15563763,0.16527014,0.16465513,0.16303956,0.15700292,0.17630340,0.17279768,0.17053756,0.17578221,0.17129077,0.18481432,0.17348384,0.19787730,0.19014848,0.18569473,0.18668470,0.18662397,0.20226005,0.19976768,0.20104040,0.20094515,0.20815054
0.02641424,0.03176855,0.03703374,0.04739659,0.05334313,0.05646769,0.05079455,0.05571578,0.04036976,0.04626993,0.03296826,0.02147777,0.02109957,0.01873326,0.01662547,0.00370438,-0.00145960,0.00281800,0.00742251,0.01060048,0.01224709,0.01280351,0.01399512,0.02732481,0.02758683,0.05580392,0.05550611,0.07906732,0.07473461,0.06965050,0.06924535,0.05330567,0.05221317,0.04092434,0.04819713,0.06369633,0.08536403,0.10623929,0.12850053,0.14803495,0.16933388,0.17390251,0.19133923,0.16300892,0.16078192,0.13973090,0.11384806,0.08599356,0.07443757,0.05344217,0.03426217,0.03751976,0.03002910,0.02031710,0.01952349,0.01768978,0.02477776,0.02229656,0.02151310,0.01785874,0.02050475,0.01916487,0.01341776,0.02075843,0.01912220,0.02384068,0.02085966,0.02113329,0.02255555,0.02429771,0.02937166,0.02885987,0.05466068,0.06674080,0.09364306,0.11517163,0.14236496,0.16074355,0.16056034,0.16953885,0.16060646,0.17312817,0.14454318,0.16346310,0.18937385,0.21164527,0.25021753,0.26491624,0.30292622,0.31923033,0.33924220,0.33693411,0.36709650,0.36405188,0.37521666,0.37522925,0.37069679,0.36314889,0.37432880,0.36565145,0.36492551,0.34950014,0.34950967,0.31445747,0.28037877,0.24387245,0.19526727,0.18196680,0.13778555,0.12901555,0.11005941,0.12488994,0.12275121,0.12562344,0.15240851,0.14798617,0.15178755,0.12863194,0.12688613,0.11646139,0.10788629,0.09435558,0.08569772,0.07618080,0.07054039,0.06578361,0.09248489,0.09888491,0.09918447,0.12981875,0.14977129,0.17560086,0.21209053,0.22556307,0.25041994,0.27820114,0.31011492,0.33003848,0.34652124,0.35841102,0.35941047,0.36818517,0.36906072,0.36236844,0.34900691,0.32619481,0.31195766,0.27511422,0.24758159,0.21179133,0.18668374,0.16765606,0.14200372,0.13499631,0.12274970,0.11044352,0.09996375,0.10390700,0.07832244,0.09540624,0.06433078,0.07318108,0.06572383,0.06367133,0.06321943,0.05624651,0.04894262,0.05913707,0.05157850,0.05856447,0.05873312,0.05930569,0.07215486,0.05958032,0.06288756,0.07922434,0.08688083,0.10038698,0.10584865,0.12228305,0.12661932,0.15975650,0.16692494,0.18447356,0.20174497,0.21005215,0.21723118,0.22644075,0.23000623,0.21425540,0.20774445,0.20183244,0.19394217,0.18762127,0.17814089,0.15873993,0.15852620,0.15632673,0.15922949,0.16458834,0.16254515,0.19810060,0.22247122,0.24573894,0.26885944,0.30135804,0.32063563,0.35699373,0.39292886,0.43012477,0.43909990,0.45942039,0.45673370,0.45868135,0.50641440,0.47092859,0.48744096,0.48868454,0.45468274,0.44608982,0.42529470,0.40334624,0.36651047,0.35807902,0.32119578,0.29579081,0.27320627,0.26665901,0.26206993,0.25211588,0.26415796,0.29581838,0.29507289,0.30734669,0.31782499,0.31220400,0.32295938,0.31594838,0.29284763,0.27884924,0.24775659,0.23365440,0.19995532,0.19564908,0.16511632,0.17935196,0.16730141,0.18604349,0.17860706,0.22869619,0.23876113,0.27162046,0.29293974,0.34540353,0.37638378,0.41130533,0.43629119,0.47512021,0.51083373,0.49833096,0.54315051,0.53685418,0.51515562,0.48244075,0.46766564,0.43257807,0.40173452,0.37838164,0.38229974,0.35018565,0.32581180,0.29759520,0.26073998,0.21902875,0.19519427,0.16734522,0.14125824,0.11674743,0.10892335,0.10837821,0.09610879,0.10476145,0.10182298,0.10057396,0.10338332,0.11545592,0.11585918,0.09921845,0.10858235,0.11639531,0.12550577,0.13455039,0.13211111,0.13098942,0.12445346,0.13250197,0.14291810,0.14961293,0.13425839,0.14542702,0.14756092
0.03894675,0.03882045,0.03878618,0.02948879,0.03708525,0.02296397,0.02028237,0.01971815,0.02140229,0.02549732,0.02085515,0.02184516,0.02183300,0.02045594,0.01072355,0.01331341,0.01646905,0.00574232,0.01664470,0.01294256,0.00905294,0.01100727,0.01912698,0.00487878,0.00578580,0.01427499,0.01210859,0.01236092,0.01538996,0.02370300,0.01594674,0.02253928,0.02729945,0.03031537,0.04059845,0.04726258,0.06473200,0.09052539,0.10342093,0.12297145,0.15690748,0.16364589,0.15588829,0.15629506,0.14795838,0.11087154,0.11013244,0.08387047,0.05617026,0.03883694,0.02929992,0.01234119,0.01721512,0.01474383,0.00640939,0.00057883,-0.00043913,0.00329256,0.00058238,0.00067254,0.00940703,-0.00258027,0.00001395,-0.00501984,0.00615258,0.01000264,0.00702665,0.00572310,-0.00296436,0.00980307,-0.00015629,0.01692804,0.02390070,0.04065160,0.06109725,0.07709565,0.10718583,0.13190918,0.14057728,0.14641742,0.16138953,0.14557629,0.14958382,0.16188287,0.19070736,0.22150627,0.27636574,0.30712138,0.36128541,0.36534740,0.39652932,0.38155455,0.39917385,0.36335041,0.34382027,0.30896947,0.29620955,0.25078985,0.21420392,0.18554298,0.16312805,0.12131168,0.10479589,0.08310711,0.07201705,0.05519399,0.04348204,0.04473364,0.04086248,0.03724441,0.05466764,0.05510469,0.06988273,0.08191559,0.09116000,0.10647788,0.10119586,0.09552838,0.09279332,0.07582333,0.05446282,0.03618568,0.03469950,0.01622332,0.00134631,-0.00210931,0.00898070,0.00264033,0.00155734,0.00098751,0.01570698,0.02268087,0.03580744,0.04975958,0.07001101,0.08268541,0.08709755,0.10869243,0.13617618,0.15460769,0.17867573,0.21788237,0.21360536,0.23599863,0.23689491,0.22194656,0.20364726,0.17909404,0.15439248,0.13285694,0.10814429,0.08538454,0.06263610,0.04458205,0.03647657,0.02425550,0.02299917,0.00649477,0.00343630,0.00016004,-0.00469688,-0.00458472,-0.01768653,-0.02244369,-0.01328571,-0.01404515,-0.01270861,-0.01592579,-0.01562610,-0.02208756,-0.01202246,-0.01290154,-0.00223887,0.00111082,-0.00091041,0.00100122,0.04271154,0.03680746,0.05634632,0.07411636,0.10769818,0.12777545,0.16517992,0.18147171,0.19902792,0.22002279,0.24191919,0.23738403,0.24106824,0.23503824,0.21800979,0.21224784,0.18723845,0.15361061,0.13945885,0.11818540,0.09389408,0.07998457,0.05869489,0.03844428,0.03195601,0.02748126,0.02538706,0.03065589,0.03218110,0.03702511,0.04199869,0.05681940,0.07503825,0.09260719,0.10315802,0.13866988,0.15332552,0.17040046,0.18690672,0.21380371,0.20930675,0.24570049,0.24294451,0.23286235,0.24650226,0.23102940,0.22532952,0.19947113,0.17999082,0.14376286,0.13336748,0.10373565,0.09071750,0.06414319,0.05217491,0.03437826,0.04200325,0.01575290,0.02372392,0.01674794,0.01689165,0.00884813,0.01216439,-0.00160099,0.00227606,-0.00098867,-0.00024028,0.00540600,0.00676261,0.01625292,0.03639116,0.04732560,0.05075273,0.08163352,0.10255156,0.11914496,0.15202973,0.16197915,0.19902271,0.21642714,0.23620618,0.24545443,0.25856463,0.26724246,0.26679219,0.27073623,0.27466854,0.25979022,0.23826619,0.23622067,0.22648722,0.21959567,0.19164605,0.20109478,0.15930160,0.15750963,0.13281795,0.09418562,0.06357474,0.03526993,0.00983592,-0.01702930,-0.01461659,-0.03236989,-0.01368725,-0.01989087,-0.01972667,-0.01810359,-0.01891119,-0.00675028,-0.01422409,-0.00456056,-0.00335395,-0.00008423,0.00787772,0.01159830,0.00713904,0.02921293,0.03144541,0.02581134,0.02486254,0.03380159,0.04241946,0.02583573,0.03338555
0.01355034,0.02242190,0.01026576,0.01655355,0.01749103,0.01453552,0.02842799,0.02176980,0.01676540,0.01823430,0.01225410,0.00510564,-0.00583163,0.00833931,0.00422082,0.00583195,0.00496711,0.00653772,-0.00431503,0.01033087,0.00980793,0.00670215,0.01036922,0.01036738,0.01478403,0.02496398,0.03004338,0.02969551,0.03453066,0.03788250,0.03872794,0.03292351,0.04645028,0.06523163,0.06226570,0.09352280,0.13896744,0.17819044,0.21469677,0.27592018,0.31510868,0.33827919,0.35835253,0.35426051,0.32451292,0.26898964,0.22796497,0.17863603,0.15410297,0.10733445,0.08404582,0.05967831,0.04429868,0.03059573,0.03540628,0.03734140,0.02400253,0.02069059,0.02524020,0.02621265,0.02515004,0.02511362,0.03404884,0.03109150,0.03158152,0.03575454,0.03699952,0.03109693,0.03277203,0.03527134,0.04378621,0.04335575,0.07677648,0.12161793,0.14833444,0.19412999,0.25494683,0.29175076,0.29831297,0.28173420,0.27292599,0.23661386,0.20162796,0.17103111,0.16151190,0.15916338,0.14969342,0.16691060,0.16828510,0.18299513,0.18171896,0.18301339,0.19702984,0.19440864,0.19505558,0.19836708,0.20664841,0.19462618,0.20311722,0.19433050,0.19527376,0.20617237,0.19874963,0.18835832,0.17327507,0.15799002,0.13166723,0.11097168,0.08983857,0.08452769,0.06854938,0.06426542,0.05397754,0.07179020,0.05539821,0.05579125,0.06084000,0.06512125,0.05586257,0.05901537,0.05071677,0.06787116,0.07050182,0.06301906,0.06686908,0.07376309,0.08667623,0.09081970,0.08982586,0.09595218,0.13191145,0.14680299,0.16981836,0.19353291,0.21728425,0.25186632,0.30790043,0.35909215,0.39433350,0.45017809,0.50216597,0.56669979,0.57981805,0.61124142,0.60576410,0.58720965,0.58400363,0.49221429,0.46190962,0.40498346,0.35729175,0.28990891,0.25557961,0.22182637,0.18102022,0.15707571,0.15318088,0.14235776,0.12479123,0.10997843,0.10444558,0.09857138,0.09346034,0.07894718,0.08854885,0.08207458,0.07344544,0.08757306,0.08447105,0.08558293,0.08438730,0.08353260,0.09370548,0.09711926,0.09602954,0.10130629,0.10455897,0.12490427,0.12540398,0.12986960,0.14472056,0.17752173,0.18652519,0.19473694,0.22194033,0.20764850,0.23006794,0.23385881,0.23660059,0.24169459,0.22139298,0.22052135,0.22655937,0.21475259,0.18667194,0.18970867,0.15116446,0.16530310,0.16991777,0.15108684,0.15892312,0.16115005,0.16934221,0.17280508,0.18644993,0.20785724,0.20977505,0.20886720,0.22716258,0.24736648,0.24350848,0.24560418,0.26166322,0.25892842,0.25970502,0.26085100,0.24851946,0.22483668,0.22704514,0.20340932,0.21262327,0.19453645,0.18028048,0.17428447,0.16341448,0.15074564,0.15931174,0.15515525,0.14987743,0.15961842,0.16810456,0.17959947,0.19819989,0.20640005,0.19825857,0.22396346,0.22315770,0.21161868,0.21518984,0.21021939,0.17975856,0.17666914,0.17836141,0.15658908,0.14924343,0.14697154,0.13587430,0.14334437,0.15101960,0.15662210,0.16541338,0.17123770,0.19203233,0.22546802,0.25659072,0.30774001,0.36217990,0.44108921,0.49366073,0.54599045,0.61481125,0.64524768,0.66496132,0.67230587,0.67187048,0.66491576,0.65756348,0.63969271,0.63359714,0.59425072,0.58431396,0.53132084,0.48382295,0.40986708,0.35414853,0.29513186,0.24785337,0.20519559,0.16905920,0.16475200,0.14870695,0.13980295,0.14921203,0.14218838,0.15493889,0.14899081,0.14557846,0.14488176,0.14887797,0.15220533,0.17025296,0.16642162,0.17329358,0.16582023,0.17532958,0.17364391,0.16114374,0.17070927,0.16677663,0.18267980,0.17826370
0.00889717,0.01014832,0.02070209,0.01545887,0.02921797,0.01961023,0.02405796,0.02810233,0.02612605,0.01321208,0.00003359,0.00569190,0.00266183,-0.00083528,-0.00497350,-0.00462040,-0.00570753,0.00241513,-0.00145379,-0.00926516,0.00526146,0.00030341,-0.00938135,0.00246347,0.01164928,0.02882154,0.02200969,0.03714150,0.04216707,0.03512086,0.02705278,0.02113558,0.02369468,0.01859624,0.03661670,0.04207865,0.06741485,0.07030912,0.10868145,0.13210247,0.15045062,0.16370025,0.17288415,0.16663371,0.14453212,0.12170520,0.10702340,0.08256123,0.06099760,0.04175872,0.02602631,0.02260974,0.00663905,0.01340881,-0.00222088,0.00457302,-0.00317063,0.00073507,0.00067173,0.00076703,-0.00416126,0.01079643,-0.00213543,0.00600515,0.00151958,-0.00191296,0.00104200,-0.00386186,0.00414632,0.00413609,0.01500755,0.01547922,0.02368232,0.03680756,0.05952024,0.09125624,0.11179440,0.13965822,0.14265277,0.14872718,0.14385125,0.13675700,0.13078287,0.12208470,0.13454772,0.13707772,0.16507468,0.19338470,0.22972588,0.23161643,0.26411697,0.27053726,0.29706968,0.33391964,0.33942933,0.34604582,0.36474182,0.37164940,0.36597475,0.36858209,0.36715553,0.35050651,0.31001400,0.29317539,0.24011542,0.19889866,0.15323749,0.13167401,0.09589798,0.07138587,0.06591179,0.07284746,0.07034949,0.06796581,0.07461419,0.06959974,0.07081772,0.06608001,0.06412572,0.05602155,0.05173666,0.04103481,0.03924622,0.02869930,0.03488723,0.03277661,0.04056030,0.05523252,0.06132730,0.08418049,0.08934986,0.10442474,0.12766880,0.14894243,0.16276168,0.19406136,0.21694119,0.23877943,0.25315034,0.28247476,0.29045589,0.30816098,0.31043190,0.31333402,0.30507925,0.29949752,0.28634395,0.26213188,0.23058722,0.20454686,0.19718312,0.17122350,0.17197304,0.16789665,0.17168693,0.17331381,0.16272320,0.14804430,0.13382056,0.12042515,0.08958651,0.07244304,0.05552073,0.04415349,0.02323734,0.01962903,0.03171730,0.02217278,0.02367216,0.01587238,0.01582827,0.02628461,0.02619023,0.03029581,0.02804061,0.03852953,0.03752744,0.03897768,0.06038821,0.07736968,0.09429898,0.10266243,0.11610607,0.12187572,0.13090442,0.15205393,0.15274152,0.16469348,0.16911099,0.15530767,0.16558225,0.15005068,0.14614115,0.12841235,0.11702186,0.11950117,0.10931307,0.10238849,0.09259104,0.10501309,0.10743559,0.12598368,0.13941728,0.13671067,0.17160201,0.20931629,0.23880166,0.26155796,0.26531997,0.31693296,0.34600277,0.38736891,0.39424464,0.42325433,0.45712385,0.47233474,0.46302987,0.45067573,0.44046257,0.42045370,0.41507575,0.39140856,0.36183289,0.32235514,0.27689421,0.26172680,0.23580812,0.20158975,0.17883899,0.18039487,0.18889397,0.17583956,0.18923787,0.17576444,0.18968243,0.20639546,0.18773204,0.18679636,0.17708937,0.16852234,0.15580577,0.12448892,0.11652378,0.10653982,0.10324149,0.09404158,0.09678308,0.10311157,0.12412818,0.14546011,0.18158802,0.22158969,0.25785335,0.31460463,0.36345942,0.39289322,0.42378251,0.46077771,0.47106808,0.50515693,0.52793834,0.50472709,0.49595095,0.49273241,0.47081190,0.46706313,0.44740450,0.43906763,0.41719503,0.39910318,0.37394572,0.32726861,0.28649963,0.22090344,0.19305200,0.12981168,0.10944557,0.07766198,0.06049071,0.04833971,0.03447331,0.03783302,0.04519839,0.03820147,0.04006948,0.04327556,0.05885692,0.04915331,0.04730500,0.05055581,0.05950185,0.05585582,0.07070846,0.06965590,0.07289303,0.06603588,0.07860403,0.07011208,0.07122337,0.07071810,0.06851052
0.02426064,0.02238417,0.02367477,0.01679543,0.02291636,0.02622947,0.02066689,0.01639689,0.02199314,0.01244426,0.01936286,0.00254127,0.00391790,0.00187641,0.00488268,-0.00804074,0.00328701,-0.00422184,-0.01352017,-0.00025405,-0.00438763,-0.00327673,0.01104756,0.00322857,0.01662068,0.01514036,0.02843749,0.03843563,0.02977528,0.02838384,0.02711316,0.02157883,0.03345981,0.02568424,0.03663358,0.04115609,0.06435794,0.08659030,0.11338601,0.13027920,0.16598599,0.16454043,0.17116249,0.16301453,0.15770057,0.12532341,0.11037527,0.08602626,0.05581747,0.03526198,0.02430526,0.01537502,0.01510220,0.02251029,0.00998418,0.01352451,0.00414615,0.00871956,0.00471264,0.00316106,-0.00004197,0.01152493,0.01181787,0.01525862,0.00725579,0.01952232,0.01600555,0.00777803,0.01433346,0.01823309,0.02289240,0.02437934,0.04161698,0.05365252,0.08981367,0.10741133,0.12790878,0.15482143,0.17311695,0.17089195,0.17272216,0.17730346,0.16890100,0.19601194,0.19724288,0.22503963,0.24778655,0.28955441,0.31233811,0.33890059,0.33408434,0.35470667,0.33520247,0.31886189,0.28926083,0.28500859,0.26122343,0.24960629,0.24260861,0.23598338,0.22042393,0.20971252,0.20851726,0.18895876,0.16090803,0.12717703,0.10955469,0.09398446,0.07170448,0.05166490,0.05044483,0.05113791,0.04815151,0.03933140,0.03428094,0.04938339,0.03772410,0.03672439,0.03735471,0.04140921,0.04833985,0.03423532,0.03420308,0.02761711,0.04080600,0.03912534,0.05298443,0.05989644,0.05368857,0.07536030,0.08892588,0.11626367,0.13648622,0.14919124,0.18015299,0.19801466,0.22082728,0.24199407,0.26702604,0.29242014,0.30924448,0.32073394,0.32093165,0.32787610,0.31485463,0.31382328,0.27761568,0.25728994,0.22840755,0.21585428,0.17526903,0.14867732,0.12022033,0.09417507,0.09876371,0.07278786,0.07960825,0.07005988,0.06173250,0.05380003,0.03869309,0.04341584,0.04524740,0.05310055,0.02919995,0.04035672,0.03520053,0.03261214,0.03613526,0.04673462,0.04508065,0.04759714,0.05032697,0.06663917,0.06634553,0.09494364,0.10696419,0.13040745,0.15358566,0.17719783,0.21048179,0.23737000,0.27748927,0.30088497,0.34004521,0.37210600,0.38140172,0.38279860,0.39397290,0.40628488,0.39091370,0.35124569,0.33390481,0.30968520,0.26104062,0.24817585,0.20506244,0.18990065,0.17177303,0.15260004,0.16081835,0.15041912,0.15658711,0.16232878,0.18074646,0.18203730,0.19898128,0.20182675,0.22723060,0.23858858,0.23499214,0.24942442,0.23453346,0.23369948,0.23923924,0.22153627,0.22889614,0.19344111,0.19127196,0.16464103,0.16111011,0.14279705,0.13868745,0.13950860,0.11891187,0.13287940,0.10285100,0.11776696,0.12337052,0.12986932,0.14304284,0.15120224,0.16828888,0.18013939,0.18425920,0.18334450,0.18909606,0.17751988,0.17821503,0.16998015,0.16403895,0.13294875,0.11668958,0.10896568,0.10005588,0.09275637,0.07980981,0.09492084,0.07933559,0.08870320,0.09568540,0.11230828,0.12642248,0.14721476,0.18294579,0.22193042,0.24611709,0.28616076,0.32456387,0.35396585,0.38097022,0.37389299,0.39027094,0.39842027,0.36646924,0.35141659,0.35897441,0.32002516,0.31295777,0.29381665,0.29530003,0.26271354,0.23847162,0.21394358,0.16557706,0.13711437,0.12596382,0.09804280,0.09472385,0.08333625,0.07787652,0.08200275,0.08804449,0.09308779,0.08869131,0.09489151,0.11639158,0.10820095,0.12081394,0.11549495,0.13815515,0.12921661,0.13050942,0.14695066,0.14777944,0.16338886,0.16414265,0.17376265,0.16362014,0.17262264,0.16644934
0.00124483,-0.00413411,-0.01155149,-0.02072665,-0.01527482,-0.01850097,-0.02861591,-0.03338891,-0.03153895,-0.02787812,-0.03768411,-0.04561019,-0.03351901,-0.03818607,-0.03944359,-0.04564994,-0.03440002,-0.03971730,-0.03629565,-0.04145841,-0.03931837,-0.03569779,-0.03976257,-0.04065421,-0.03413972,-0.02828057,-0.03579089,-0.01965683,-0.02920283,-0.02270212,-0.03079378,-0.02973817,-0.03677502,-0.03555098,-0.02435673,-0.02170491,-0.02888702,-0.00030035,-0.00265875,-0.00740322,0.01427927,0.01773957,0.02474023,0.01394285,0.00318569,0.00208686,-0.00217665,-0.01302931,-0.01553548,-0.02266265,-0.03111683,-0.03841381,-0.03886187,-0.04133506,-0.03051665,-0.04001764,-0.03828176,-0.03990822,-0.03652318,-0.03268614,-0.03992695,-0.04164315,-0.04102895,-0.03629939,-0.04690935,-0.03419897,-0.02649575,-0.03755807,-0.03093932,-0.03185496,-0.03884457,-0.03776641,-0.02627328,-0.01851984,-0.00977710,0.00903581,0.01292011,0.02968605,0.04752600,0.06952032,0.08868466,0.11525162,0.14002818,0.17042387,0.24285801,0.28359602,0.34514435,0.39053242,0.44422857,0.46483171,0.47487467,0.47825250,0.44136359,0.43276897,0.38327725,0.35717602,0.28856318,0.26004357,0.20883817,0.17363049,0.15245610,0.11136839,0.10117101,0.08033062,0.05617332,0.03862394,0.01321870,0.00196794,-0.00441322,0.00184054,-0.00957128,-0.01597807,0.00206497,-0.00405752,0.00612448,0.00764272,0.00942026,0.01100774,-0.00396262,0.00699657,-0.01859248,-0.00847642,-0.02418835,-0.01691336,-0.02804880,-0.02560056,-0.02779340,-0.01752725,-0.02167699,-0.01639684,-0.01480556,-0.00576426,0.00321217,0.01014192,0.01936067,0.02151977,0.03890577,0.04351435,0.04669407,0.05243665,0.06559592,0.05983961,0.06111655,0.07012630,0.06329175,0.06177579,0.04731352,0.04225153,0.04325325,0.02877182,0.01281351,0.01662713,0.01571723,0.00444650,0.01457198,0.01455192,0.00987673,0.00060700,0.00514572,-0.00351691,-0.01436997,-0.02244873,-0.02384441,-0.02164472,-0.03766117,-0.02960747,-0.01943005,-0.02415470,-0.01870857,-0.02226582,-0.00240141,-0.01186345,-0.00324261,0.01052958,0.02053276,0.04077563,0.07233252,0.09936571,0.13301105,0.18220356,0.23175266,0.28027483,0.32082942,0.36843276,0.42663120,0.45886277,0.47231415,0.48907073,0.50201859,0.49605096,0.46817336,0.45224278,0.39857764,0.35861526,0.29265894,0.26127105,0.20145673,0.16519263,0.13781064,0.10136107,0.07497790,0.06584434,0.04987677,0.04566579,0.04849255,0.05101972,0.04962877,0.06168851,0.07366159,0.06844645,0.08655235,0.10916730,0.10331093,0.11128170,0.11437992,0.13427834,0.13516171,0.12915057,0.12325807,0.12849469,0.11329732,0.11791718,0.09469314,0.08695309,0.07455979,0.06254908,0.06347033,0.05147491,0.03469726,0.02424291,0.02365858,0.02490608,0.03115622,0.02583945,0.02521068,0.02836733,0.02355210,0.02662886,0.02844794,0.01204598,0.00638457,0.00710462,-0.00438803,-0.00560217,-0.00235576,-0.00343308,0.00573849,0.00774242,0.01922939,0.02522196,0.05430256,0.04857619,0.06474079,0.08248502,0.10015762,0.10368848,0.11278685,0.12271676,0.13526638,0.12012447,0.11135427,0.12549965,0.12262596,0.12169698,0.12814095,0.11659241,0.09773097,0.08917635,0.08584437,0.08552547,0.09108962,0.06331717,0.05001141,0.02922463,0.02620609,0.01662370,0.00825185,-0.00655849,-0.00989719,0.00450178,0.00571871,0.00571200,0.00832968,0.02280975,0.02496487,0.03280106,0.04038308,0.04518881,0.06583979,0.06187501,0.06803899,0.07802922,0.08782659,0.10027646,0.11495550,0.12340894,0.11936327,0.13133711,0.12985225,0.12906822,0.13377785
0.03809398,0.03371922,0.03201990,0.04488983,0.03247931,0.03474743,0.03848580,0.04966171,0.03343778,0.03120530,0.02626163,0.02016876,0.02987496,0.01946135,0.01636219,0.01365903,0.01284562,0.01384166,0.01179544,0.00135533,0.01292943,0.00544050,0.00874899,0.01610298,0.02386714,0.02657037,0.03984043,0.03412264,0.03588839,0.04257659,0.04035386,0.02626239,0.02691887,0.03067981,0.02749049,0.02022144,0.03212231,0.04569495,0.04647610,0.05055704,0.05997019,0.06697597,0.07294050,0.06619249,0.06386763,0.05863660,0.03850731,0.04190000,0.03273634,0.03089682,0.02790842,0.01302880,0.01929859,0.02098420,0.01224848,0.01673951,0.01884822,0.00578152,0.01346321,0.01667458,0.01085381,0.01149797,0.01058873,0.01486849,0.01583828,0.00868340,0.02207027,0.02012764,0.02177171,0.02367515,0.00842908,0.01964292,0.03229012,0.01962388,0.04034196,0.05316311,0.05109687,0.06854671,0.08386458,0.06829555,0.08709073,0.09975611,0.11372485,0.13158142,0.13714118,0.18747426,0.20970366,0.24011230,0.28734867,0.31492700,0.36481413,0.39270465,0.41312158,0.44542624,0.44430285,0.46033308,0.47824657,0.46627507,0.45991419,0.41941263,0.41247961,0.37171041,0.34236663,0.30204850,0.24512172,0.20648453,0.16519577,0.13269414,0.09456401,0.09206875,0.09479460,0.08725193,0.10209838,0.10083958,0.10092564,0.12582141,0.13625743,0.11286121,0.12148128,0.10177863,0.10662200,0.07760377,0.06444842,0.06724303,0.04704297,0.04412490,0.04440039,0.05185389,0.06485819,0.05773863,0.06566167,0.07446712,0.08461713,0.10221882,0.11444819,0.12628367,0.13310095,0.13674935,0.15263217,0.15865568,0.15161018,0.14958453,0.15853720,0.15055562,0.13878302,0.14462581,0.12367414,0.12436961,0.11303738,0.11167287,0.11346597,0.12362992,0.13570424,0.16204369,0.17078955,0.19372410,0.17971983,0.19866127,0.17589851,0.15601831,0.15214870,0.10724722,0.07267321,0.06963272,0.04825551,0.04352983,0.02790426,0.03568504,0.02576307,0.02219375,0.02877861,0.03262665,0.04034628,0.04617733,0.03816772,0.03837825,0.04172887,0.06419759,0.07772302,0.07685741,0.09716432,0.11247927,0.13231686,0.13545360,0.15920245,0.16842723,0.17512287,0.18742998,0.19920242,0.18480699,0.20029781,0.16688640,0.17845037,0.16432359,0.14365880,0.13403070,0.12375471,0.12135583,0.11433406,0.11012881,0.11103672,0.10639608,0.12094145,0.13378380,0.13871191,0.16570909,0.18988744,0.22590794,0.23804084,0.27395869,0.30994508,0.35620929,0.39927030,0.43262482,0.46395277,0.51398644,0.56427299,0.54220964,0.60148550,0.57846120,0.55622112,0.53024422,0.48469646,0.46872710,0.41349870,0.37904744,0.33110301,0.29283056,0.25438282,0.22951226,0.20256641,0.19064387,0.17957403,0.17407091,0.17755608,0.16847122,0.17212512,0.15774011,0.15293009,0.15612058,0.13318027,0.12192240,0.11246124,0.10620752,0.11093294,0.10610184,0.12047779,0.12294115,0.16371009,0.20635906,0.21090125,0.27807533,0.32047465,0.37098965,0.41992109,0.42309093,0.46441257,0.47249898,0.46270006,0.46706581,0.44236016,0.43590489,0.39352343,0.39550660,0.36649325,0.35089680,0.36430423,0.34749829,0.34629987,0.33104169,0.32411216,0.29271422,0.24365149,0.22000377,0.16736532,0.14670013,0.10863449,0.08825223,0.06523178,0.06275699,0.05892713,0.05965452,0.05466056,0.05564875,0.06047766,0.06879996,0.06238148,0.06821797,0.06264735,0.06609922,0.07905635,0.09118442,0.08018529,0.08573536,0.08503864,0.06994823,0.09080341,0.08725834,0.08642921,0.09184603,0.09780099
0.03375815,0.03718474,0.03929827,0.05397009,0.07435021,0.07444864,0.07679348,0.07212436,0.06577542,0.05793272,0.06266343,0.04025889,0.03075926,0.02680376,0.01258468,0.01651349,0.01025306,0.00860253,0.01496839,0.01683464,0.02015482,0.02835632,0.01579469,0.02909986,0.04369184,0.05932356,0.07232290,0.08896413,0.09396005,0.10200030,0.09217947,0.07289379,0.05956637,0.04903310,0.04997067,0.04695981,0.04285461,0.06049915,0.05904458,0.07667664,0.08961791,0.09505502,0.09711040,0.10129512,0.09080369,0.08546065,0.08860436,0.05958172,0.06195721,0.04733788,0.04048172,0.03766977,0.02784002,0.01470874,0.02768068,0.01903699,0.03334136,0.01275167,0.02600330,0.01805249,0.01915673,0.01980748,0.03002669,0.02463176,0.02337674,0.02947386,0.01759458,0.03103791,0.03671270,0.02168881,0.03192092,0.03377376,0.04275800,0.04470341,0.05470547,0.06024594,0.07181962,0.09339214,0.09583560,0.09545382,0.10109734,0.09177488,0.10032322,0.10274618,0.10108075,0.12542006,0.14061363,0.16141514,0.18879714,0.22071036,0.23056569,0.26188093,0.29479578,0.30747109,0.35267678,0.36367040,0.38243157,0.42493307,0.45888971,0.46376335,0.49882860,0.51470371,0.49771747,0.46664588,0.41334565,0.36361418,0.31977680,0.25781313,0.21339304,0.17432094,0.13987385,0.13507769,0.12838243,0.14123481,0.13172146,0.12469914,0.13036566,0.14865121,0.12714920,0.12028466,0.11571583,0.09805894,0.09157331,0.09041103,0.08277290,0.07697110,0.08327251,0.10835641,0.11341693,0.14278558,0.16753227,0.20212753,0.24260978,0.25324380,0.29575198,0.31730257,0.33517172,0.33306611,0.36161914,0.34622178,0.34878260,0.31953785,0.31044564,0.30398858,0.27531434,0.25408174,0.22885288,0.20008736,0.18757766,0.16971552,0.16345526,0.14945370,0.16108231,0.15163007,0.15755133,0.17994942,0.16956861,0.16464581,0.15737799,0.15081835,0.12315176,0.10135712,0.10025339,0.08417392,0.07285432,0.06531630,0.06351453,0.05525170,0.06650015,0.06608796,0.05908540,0.05565134,0.05208420,0.07065400,0.06804564,0.05820389,0.07285504,0.06648261,0.06646977,0.06923903,0.07361237,0.08693415,0.08683537,0.08859513,0.09815274,0.09105195,0.11379485,0.10189980,0.10660286,0.11903415,0.10146923,0.11537370,0.11574680,0.10168015,0.10977110,0.10771743,0.13029532,0.12392200,0.14106177,0.14864312,0.17411841,0.20961813,0.23773209,0.26795902,0.29519511,0.33849659,0.38584383,0.44305911,0.50317856,0.52167485,0.55022982,0.58213919,0.59650232,0.60395003,0.62417758,0.64264699,0.63742755,0.63235636,0.62728152,0.58770045,0.55906921,0.52206559,0.47998679,0.44006159,0.41894053,0.37149890,0.35249824,0.33213678,0.31695027,0.31207794,0.32817834,0.33167156,0.35593470,0.36089917,0.39093254,0.40184469,0.41137358,0.41411075,0.40302518,0.37666699,0.33578424,0.33267416,0.28076165,0.27034366,0.23975923,0.21097098,0.18569015,0.19050139,0.19601376,0.21848620,0.24812348,0.27253320,0.30507533,0.35602388,0.40329354,0.45577265,0.47427456,0.52265026,0.52391527,0.54158446,0.53299870,0.53546557,0.53013288,0.49860366,0.48155215,0.45019112,0.42913430,0.40236944,0.36729346,0.35965312,0.33487017,0.31483715,0.27938968,0.25652103,0.20843979,0.17863621,0.15487409,0.12194083,0.12551710,0.10743401,0.11106967,0.10370974,0.09547152,0.09487806,0.09257751,0.09637849,0.09543164,0.09611295,0.10153922,0.10074881,0.09455362,0.09515660,0.10438471,0.09977451,0.09979424,0.10564448,0.10259420,0.10687288,0.11275871,0.11226573,0.11220885
0.03652544,0.03354348,0.02912940,0.03355239,0.03333468,0.04392736,0.03896342,0.03487425,0.04586680,0.02585004,0.02132135,0.02240823,0.02066509,0.01908898,0.01843804,0.01945910,0.01118611,0.01438661,0.02162560,0.00803748,0.01801688,0.01750095,0.02059272,0.01580261,0.03021489,0.04188555,0.04295154,0.04688821,0.05466707,0.05017328,0.03989252,0.03474893,0.04473027,0.03938531,0.03470792,0.06658778,0.08074718,0.09753353,0.13650180,0.15579183,0.17790590,0.19932520,0.19535334,0.18759874,0.16497709,0.15217292,0.12078171,0.11303145,0.07235716,0.06139233,0.04655065,0.03330264,0.02383030,0.02839154,0.02379769,0.03001712,0.02129154,0.02560303,0.02140640,0.02283686,0.02898912,0.02966104,0.02268992,0.01870761,0.02728237,0.01663358,0.02667771,0.03287255,0.02160154,0.02921203,0.02970305,0.03120260,0.05762493,0.08089467,0.09255457,0.11850796,0.15345615,0.16759115,0.19749748,0.18183344,0.18796785,0.17439135,0.17009028,0.18436841,0.20559072,0.24592534,0.26833729,0.30102886,0.34579604,0.36914993,0.38882855,0.38788420,0.37937344,0.38806558,0.36983020,0.34731472,0.32507448,0.29503599,0.27981585,0.27206274,0.25221955,0.25685492,0.22688759,0.21568110,0.18937294,0.15496186,0.12779146,0.12331887,0.10677199,0.09269409,0.10272071,0.10986642,0.12056636,0.12007361,0.14026708,0.14251759,0.15065915,0.14307558,0.13414617,0.11271087,0.10563026,0.09283431,0.06163595,0.07133266,0.06139213,0.06080494,0.06079311,0.06351285,0.07277465,0.09034046,0.11103763,0.10974707,0.13846547,0.16309068,0.18720665,0.20800689,0.22367270,0.25089317,0.28197652,0.29723849,0.31320667,0.32461473,0.33308811,0.34229347,0.34136204,0.31101952,0.31742946,0.26985813,0.23819025,0.19706357,0.17194332,0.13762841,0.13154144,0.10562534,0.09417860,0.08445356,0.06991276,0.06503760,0.05977517,0.06083043,0.05015291,0.04775033,0.04674526,0.04088045,0.04070460,0.04386889,0.04029956,0.03859980,0.03169230,0.03151837,0.03973667,0.04296825,0.04915176,0.05403889,0.06380530,0.07333679,0.07852849,0.08751400,0.09972608,0.10848927,0.13768546,0.15763804,0.17430695,0.21455568,0.21558522,0.21810570,0.23969527,0.24459419,0.25033327,0.25281713,0.25920946,0.22857751,0.22043161,0.19001089,0.18890423,0.15510624,0.15540856,0.13690539,0.13422514,0.11797748,0.12428027,0.13441383,0.14385637,0.15977649,0.16081986,0.19313637,0.21440214,0.21499571,0.23942887,0.26278914,0.26702276,0.29653237,0.32969442,0.33740628,0.34871686,0.34194274,0.36233185,0.34835724,0.34627278,0.35087853,0.31829824,0.32165493,0.30117528,0.27702247,0.25733851,0.23549990,0.21382146,0.21185707,0.18752314,0.17646809,0.18056115,0.18426557,0.18419255,0.18427274,0.19735066,0.19465149,0.18518103,0.18655002,0.17943980,0.14240229,0.14772775,0.13371081,0.12532670,0.11380082,0.10638081,0.11195112,0.11574101,0.12339312,0.14039358,0.15864933,0.18451438,0.21165312,0.22899345,0.26381202,0.28549907,0.30958145,0.34508228,0.38771267,0.40271664,0.41611362,0.43571158,0.41106536,0.42892189,0.40138560,0.37376085,0.35450063,0.33671150,0.32706550,0.29543954,0.30216228,0.27151154,0.24922360,0.21736933,0.18176996,0.15874085,0.12496694,0.08902871,0.07702336,0.07535981,0.06044650,0.06197499,0.04929053,0.05743241,0.06044308,0.06739120,0.05827338,0.05984935,0.05764002,0.07260254,0.07732210,0.07852565,0.08244761,0.09295287,0.09890541,0.09083026,0.09448758,0.10307878,0.10719072,0.09672371,0.09521127,0.08891718
0.05188813,0.04669002,0.04250025,0.04355649,0.03952138,0.04091388,0.04220432,0.03921265,0.03143148,0.03856675,0.02788265,0.02967695,0.01951370,0.01054362,0.03213970,0.02497741,0.02528138,0.01731123,0.03299478,0.02020548,0.02395279,0.03069084,0.03499357,0.03477306,0.03734552,0.03971812,0.03692029,0.03781683,0.04436974,0.04262168,0.04895164,0.04862555,0.03957328,0.04391801,0.03959618,0.06383627,0.06387509,0.06163617,0.06825454,0.08225380,0.08789760,0.09634748,0.09753516,0.09487960,0.09294196,0.08431962,0.08055036,0.06470744,0.05769973,0.04773775,0.04532650,0.05572924,0.04088510,0.04502413,0.03333290,0.04134533,0.05277761,0.03961266,0.03748722,0.04021042,0.03676526,0.03308992,0.04718055,0.03691756,0.04377912,0.04125270,0.03122482,0.04762961,0.03709223,0.03791378,0.04511548,0.05334381,0.05217325,0.05911749,0.06919667,0.08836957,0.10706071,0.10530996,0.12042301,0.13208718,0.15105737,0.15564076,0.20164844,0.20974830,0.25569228,0.31047787,0.35480124,0.39992579,0.45119738,0.48951007,0.51175832,0.53683611,0.55817689,0.55830068,0.53918076,0.52228606,0.52081512,0.48817697,0.44811318,0.41063206,0.35592475,0.33422204,0.29618964,0.23422054,0.20074437,0.17342720,0.14188270,0.12525568,0.11806228,0.11264852,0.09842360,0.11431042,0.12280373,0.13893713,0.15970394,0.16348693,0.14676336,0.15655374,0.15266579,0.13909716,0.12732485,0.10612457,0.08922386,0.08994502,0.07987881,0.07372090,0.07242637,0.07663471,0.07230615,0.08362805,0.08011466,0.09432395,0.08283594,0.10559319,0.12194222,0.12038698,0.13686300,0.13565546,0.14045907,0.15493533,0.16877197,0.17877885,0.17081337,0.18121212,0.17897563,0.17288296,0.17154377,0.16218648,0.15882015,0.15916324,0.16677861,0.17214423,0.17375819,0.20141459,0.21404647,0.22813025,0.20016203,0.21184568,0.19083466,0.16774287,0.16456692,0.12381208,0.11219228,0.09907690,0.08161563,0.08453622,0.08632255,0.07869080,0.07647790,0.07949574,0.08405914,0.07973799,0.09029908,0.09390659,0.10182387,0.14051037,0.13569953,0.14542285,0.17727322,0.20308674,0.23736463,0.25814681,0.29220009,0.32580200,0.35401624,0.38603438,0.38673714,0.40858485,0.40424666,0.40465388,0.38294432,0.38292718,0.37118409,0.31367098,0.29721391,0.26500794,0.24247502,0.20399854,0.19180579,0.17651563,0.17081650,0.16159303,0.14631364,0.16378432,0.16417886,0.17693033,0.18751409,0.22664832,0.22618936,0.26393409,0.30731249,0.34287972,0.38488468,0.41908619,0.46106807,0.49051067,0.51869395,0.53179308,0.52911584,0.51811386,0.54426047,0.48475706,0.45456732,0.44457478,0.39922869,0.36287956,0.31921008,0.29685729,0.25105109,0.22588929,0.21954492,0.19074004,0.17806173,0.16669683,0.16706668,0.16131177,0.15540681,0.15616815,0.14714023,0.14442587,0.13963623,0.14007174,0.12913178,0.14815640,0.14084414,0.16299521,0.17669555,0.19398807,0.21998672,0.24165109,0.28030461,0.33522383,0.34886042,0.41498657,0.42857010,0.46407052,0.46526186,0.46661585,0.45643060,0.46562416,0.43640465,0.42405891,0.41013384,0.40452786,0.38873257,0.38299296,0.37155362,0.38778626,0.38956826,0.35196232,0.33287783,0.29325023,0.27755152,0.23509172,0.22569629,0.18446800,0.15549591,0.13388963,0.13426342,0.14094692,0.13680934,0.13991413,0.12137050,0.14490933,0.14407995,0.15619771,0.15935787,0.15041926,0.16537528,0.16457117,0.16814712,0.19067166,0.19003596,0.18749828,0.19835240,0.19491432,0.20422340,0.20726145,0.21923388,0.20358533,0.22283343
0.01766649,0.02525492,0.03490715,0.05465165,0.06274626,0.06270334,0.07671949,0.06329841,0.05999004,0.04477277,0.03733107,0.04808284,0.01434699,0.01074005,0.00989949,-0.00440808,0.00859036,0.00768010,0.00541778,-0.00320845,0.00060556,0.00549153,0.01705429,0.03452387,0.03151002,0.04894173,0.06353129,0.08430243,0.08144510,0.08965377,0.08777912,0.06281981,0.05591701,0.04699667,0.04019631,0.04944405,0.06430393,0.07625296,0.10030455,0.13636009,0.14915945,0.15968265,0.17580252,0.17259035,0.15229848,0.14097974,0.10421224,0.09713426,0.08493172,0.05944928,0.04230620,0.03722770,0.01664032,0.03018774,0.02279076,0.02287777,0.00686562,0.00919451,0.01340063,0.00737514,0.02061236,0.01461551,0.00744047,0.01950775,0.01819760,0.01731876,0.01360771,0.01980286,0.02012347,0.01691093,0.03017661,0.02941038,0.04026269,0.05364469,0.07154101,0.09209144,0.12011652,0.13208837,0.15581880,0.15086390,0.14403184,0.13195053,0.11416837,0.10110943,0.08821572,0.10828042,0.10176148,0.10970554,0.13967585,0.15335502,0.16903703,0.19588177,0.21211300,0.24813221,0.28522282,0.33651973,0.36673907,0.41002038,0.43476515,0.46851811,0.49306468,0.48596145,0.48060769,0.46582803,0.41376016,0.34397514,0.30405941,0.23597147,0.20671183,0.17036959,0.12734717,0.11161298,0.09285221,0.09186308,0.09307412,0.09412568,0.09223295,0.09321604,0.08685708,0.08984478,0.08134714,0.08537868,0.06953706,0.07654228,0.07590201,0.07976568,0.10221721,0.11573200,0.12409521,0.16286365,0.17036992,0.20901652,0.23857927,0.28053073,0.32072188,0.34611157,0.37519775,0.41570487,0.41261323,0.41802327,0.43805113,0.42652035,0.42226831,0.39959838,0.38826925,0.37458969,0.33295547,0.31881420,0.28463107,0.25026591,0.23248147,0.21029977,0.21528280,0.19300717,0.20476848,0.19980306,0.19821777,0.18887870,0.17215908,0.16106647,0.13655187,0.11549295,0.10297624,0.09216839,0.06859495,0.07658573,0.07229645,0.06725878,0.06157576,0.07396745,0.06720774,0.07255918,0.07810172,0.05678406,0.05977507,0.07982578,0.06577079,0.06640828,0.08748414,0.08879657,0.09099153,0.09368018,0.09580783,0.10702769,0.10504741,0.11032840,0.12151148,0.12254011,0.10796371,0.11014483,0.11557302,0.12421189,0.12392798,0.13049397,0.12578823,0.13389979,0.14119469,0.14598256,0.15289676,0.17773495,0.18630321,0.22113623,0.26278040,0.28644669,0.32496030,0.39052150,0.42958362,0.46774422,0.52606485,0.54395138,0.56619047,0.59778946,0.61992293,0.61756447,0.62030245,0.63442490,0.61442357,0.59620550,0.56581520,0.53253033,0.52118017,0.45999542,0.44567597,0.40875336,0.34972835,0.35117734,0.31612128,0.30264996,0.29020393,0.30132749,0.32459693,0.33055607,0.35865808,0.39433628,0.40995729,0.42539978,0.44005381,0.43620594,0.43231759,0.39706501,0.37059582,0.32368300,0.30480807,0.26460157,0.23209322,0.19972082,0.20786668,0.20032767,0.20999349,0.21663457,0.24400295,0.28057376,0.30869076,0.37260993,0.39925498,0.47353532,0.50977499,0.55957905,0.59332224,0.60690431,0.63976302,0.65914399,0.64857822,0.65017787,0.60984960,0.60343901,0.57508948,0.54097612,0.52013364,0.48404257,0.46982178,0.43087833,0.38701426,0.34640498,0.28366542,0.25690168,0.22289988,0.17387383,0.16363934,0.14747599,0.13708679,0.14636217,0.12731436,0.12094208,0.13689879,0.13527503,0.12659723,0.12709816,0.13058642,0.12707568,0.14108776,0.13074351,0.13870232,0.13027182,0.13567789,0.13626399,0.14621419,0.15456992,0.14709133,0.14180511,0.14050582
0.06429004,0.05953895,0.06773521,0.07671185,0.07616566,0.08544892,0.08691022,0.07187732,0.07764366,0.06134737,0.05798155,0.05297422,0.04233114,0.02980358,0.03792154,0.03206711,0.02234581,0.03804617,0.02378394,0.02967905,0.03680981,0.03126988,0.04675099,0.04312177,0.05410420,0.05714473,0.08067467,0.07135879,0.09179452,0.10046019,0.07938435,0.06900127,0.05506252,0.05550239,0.05003334,0.06127930,0.06923933,0.07802115,0.09180633,0.10592819,0.12071554,0.11693053,0.13008057,0.12834630,0.12501011,0.11238048,0.09974417,0.07601471,0.06303910,0.06412679,0.04102801,0.05205543,0.03699232,0.04175226,0.03798024,0.03380820,0.03886189,0.04469743,0.04159314,0.03557962,0.03295665,0.03689608,0.02454991,0.02884423,0.03702960,0.02777218,0.03552554,0.03676987,0.03442401,0.03660372,0.03410234,0.04617707,0.04914386,0.06149701,0.06343102,0.08688606,0.10935929,0.12656999,0.11997110,0.13551508,0.14108118,0.14950058,0.14219279,0.15779709,0.17267228,0.18774980,0.20930409,0.23656947,0.25653940,0.28057524,0.28982862,0.31211593,0.31071746,0.30847857,0.30829384,0.32978369,0.34528665,0.34999182,0.37894672,0.37746620,0.38605986,0.38429518,0.38353490,0.33569426,0.29322887,0.27138298,0.21336259,0.18292402,0.13641291,0.12326221,0.08874930,0.07939834,0.06464498,0.06693149,0.05699082,0.05867447,0.06372017,0.05568617,0.05140725,0.06099623,0.05569386,0.05570104,0.04944058,0.05312615,0.06055584,0.06680531,0.07195070,0.08159709,0.10806491,0.11385939,0.14481720,0.16842326,0.19924606,0.21521572,0.24024817,0.26372064,0.29117541,0.28624448,0.30597134,0.29169288,0.29203320,0.30127372,0.27492941,0.27464153,0.25385409,0.22816578,0.22796379,0.20115144,0.18788788,0.16787894,0.14971696,0.14061888,0.12699761,0.13623094,0.13376004,0.13861514,0.13006606,0.13168884,0.11807890,0.09305177,0.08730530,0.07868701,0.07305686,0.05555127,0.05074765,0.05487973,0.05080653,0.04590577,0.04848297,0.05108607,0.05318397,0.05601068,0.05525412,0.06781095,0.06626240,0.06789205,0.08297530,0.10504062,0.11439771,0.14358668,0.16039904,0.18360163,0.20675726,0.23622890,0.25080139,0.26612175,0.29062108,0.28909257,0.29969935,0.31168589,0.28878010,0.28461005,0.26754827,0.23290388,0.22017634,0.20750908,0.18442094,0.17985440,0.17344918,0.17122564,0.18291805,0.18893501,0.20644750,0.21355041,0.25588102,0.26796304,0.31458823,0.33277774,0.35783796,0.37216788,0.38230761,0.41433128,0.41138088,0.40918302,0.40224438,0.38563481,0.36482275,0.35423494,0.31781322,0.30986871,0.27980775,0.23882791,0.22316418,0.20206906,0.17945172,0.17311286,0.15918492,0.17823775,0.17352274,0.19406858,0.20019430,0.20982196,0.24984829,0.25406492,0.27960495,0.29211837,0.28083682,0.28275927,0.26255486,0.24428585,0.23302580,0.20846705,0.17718502,0.15015026,0.13706787,0.11561032,0.09556622,0.09288232,0.11707044,0.10904361,0.11829138,0.14215606,0.15748362,0.21573156,0.24397851,0.26949160,0.30706512,0.33678588,0.37930823,0.38374248,0.40347366,0.40180797,0.39206502,0.37725454,0.35406796,0.34695829,0.33318092,0.31449130,0.30147792,0.28619685,0.25761819,0.23677566,0.20341898,0.18572000,0.14723135,0.12194153,0.09767668,0.08021205,0.07096600,0.05767749,0.06790498,0.05750595,0.06508178,0.06827256,0.07984429,0.08509913,0.07717967,0.08636797,0.08708114,0.09281613,0.10558228,0.09624124,0.10350074,0.11026328,0.11342337,0.10822733,0.11080086,0.13129803,0.11395306,0.13057287,0.12916828
0.01371683,-0.00707240,-0.00917688,0.00151335,-0.00329863,0.00261055,-0.00581190,0.00277044,0.00807956,0.00614105,-0.00595118,-0.00300258,0.00219967,0.00640475,-0.00780327,-0.00729998,0.00281108,-0.00427926,-0.00718946,0.00377696,-0.00923078,-0.00333621,0.00618351,-0.00007711,0.00924010,0.00188101,0.01490719,0.01581234,0.02336856,0.01447433,0.01409415,0.01581997,0.02336680,0.01789333,0.02782610,0.04933878,0.05688197,0.07337693,0.08461452,0.11120203,0.11466189,0.12373676,0.13209015,0.14494501,0.12815218,0.10739585,0.09400682,0.08105118,0.06859957,0.03902354,0.04423413,0.03409125,0.02022421,0.01853442,0.02132529,0.01640791,0.01830003,0.01214390,0.00843350,0.03081664,0.01954188,0.02029594,0.02228503,0.02713184,0.02560230,0.01602932,0.02150220,0.02329613,0.02806113,0.02265317,0.03074565,0.03491691,0.04936157,0.03978230,0.07150583,0.09322545,0.11621994,0.13001972,0.13673191,0.15124446,0.14869906,0.13874639,0.13633337,0.15655606,0.16358511,0.19884187,0.23698837,0.26334737,0.30071894,0.33569919,0.37878716,0.40602615,0.41438999,0.43339970,0.43241173,0.42550280,0.42825279,0.40471308,0.37614118,0.34347581,0.33267591,0.28198777,0.24492461,0.21555485,0.18902719,0.14331087,0.13486961,0.11613644,0.09651439,0.09445574,0.10452704,0.12745152,0.12780823,0.15171503,0.16504489,0.15852351,0.17368964,0.17818124,0.15969454,0.15732182,0.12600497,0.10652159,0.09695280,0.09009974,0.07401324,0.07491101,0.05750311,0.06228477,0.07497020,0.05680513,0.07799556,0.07811595,0.08771938,0.10080130,0.10633107,0.13587483,0.15050701,0.17339882,0.18629766,0.19888738,0.22991767,0.23275369,0.24952485,0.28121440,0.27612309,0.26777926,0.26661958,0.24028093,0.23194498,0.20784174,0.20038766,0.19713862,0.20577942,0.19328060,0.20988546,0.20514413,0.19124792,0.18265575,0.17782673,0.17171661,0.14614040,0.13626109,0.10886911,0.10269326,0.08598322,0.07284107,0.07847048,0.06816800,0.06368672,0.06766559,0.07056842,0.07564082,0.08111525,0.08241545,0.09462431,0.07539944,0.09156322,0.11520124,0.10609832,0.10992330,0.12389734,0.13429577,0.14969247,0.17684988,0.16749589,0.18255445,0.20562911,0.20365299,0.20682109,0.20167964,0.20784325,0.18828637,0.19402238,0.17876680,0.16642059,0.15388075,0.15402146,0.14172899,0.13058667,0.12952691,0.12033432,0.13584035,0.14022206,0.14542604,0.14996290,0.16485288,0.16933156,0.19718078,0.22343881,0.25405648,0.29414843,0.32333034,0.36117311,0.42053778,0.44800567,0.48320221,0.50227656,0.53442601,0.56262833,0.57348673,0.54567889,0.54764222,0.52456400,0.48180403,0.44755500,0.41730627,0.35547043,0.30751076,0.28187421,0.24664146,0.22695682,0.21177965,0.19753490,0.18223354,0.18125138,0.16810296,0.16754701,0.15867799,0.15400296,0.14496448,0.14482541,0.13875609,0.14004085,0.14467814,0.15773228,0.15925386,0.18143078,0.19096019,0.22620796,0.27255889,0.30484687,0.32885892,0.38653010,0.42492599,0.45141401,0.47418960,0.50266115,0.51354052,0.53602941,0.53194649,0.52459611,0.51762892,0.47239345,0.47929021,0.47543318,0.45869024,0.45444035,0.44840363,0.45037335,0.43488972,0.42486650,0.38632610,0.34654595,0.30245962,0.25463430,0.22329350,0.19626337,0.16933089,0.14208355,0.12822777,0.13575779,0.12925368,0.12870914,0.12166945,0.13268321,0.13405994,0.12973294,0.13705624,0.12985351,0.13750025,0.12766238,0.14112322,0.16127366,0.15236126,0.16123924,0.15593617,0.15560160,0.15709089,0.15431570,0.16270125,0.15364363
-0.00947813,0.00387039,-0.00809301,-0.00522396,0.00108399,0.00439576,-0.00622946,-0.00350898,0.00199923,0.00000781,-0.00503781,0.00019947,-0.01586539,-0.00276036,-0.00537022,-0.00824608,0.00305086,-0.00296391,-0.00842406,-0.00290981,-0.00134522,-0.00890372,-0.00771998,-0.00907152,0.00081405,0.00312708,0.00617258,0.02272212,0.00851983,0.01572260,0.01749169,0.01111441,0.02551862,0.03129247,0.04872302,0.05404131,0.08636900,0.12674322,0.16348712,0.20484509,0.23573319,0.26898594,0.28273826,0.27282302,0.25554446,0.22203300,0.18917769,0.13806836,0.11082670,0.08007992,0.05754559,0.04444097,0.02743881,0.01833371,0.02731945,0.00979482,0.00447849,0.00977542,0.00444965,0.01843744,-0.00082281,0.01456910,0.02026710,0.00915822,0.00725376,0.00189480,0.00422550,0.01796318,0.02232526,0.02252593,0.03200500,0.03222717,0.04661207,0.06800283,0.11084693,0.14060403,0.18987800,0.21441525,0.23212257,0.22881671,0.21336024,0.19785163,0.17080297,0.14713371,0.13539255,0.13085358,0.14245129,0.15011091,0.18092952,0.19977775,0.21084240,0.24006010,0.25138611,0.26040266,0.26212402,0.29030141,0.27078498,0.29728870,0.29195170,0.27495965,0.26900094,0.23077681,0.20274918,0.18041206,0.17229975,0.13916275,0.11231972,0.10117130,0.07006167,0.06816304,0.06875408,0.06243608,0.06565933,0.06192395,0.06131202,0.07098501,0.07303524,0.07077193,0.06779482,0.06113376,0.06086229,0.06138610,0.04937714,0.04761522,0.05225715,0.05163010,0.04563296,0.04951934,0.06174747,0.06012459,0.08006780,0.08233621,0.10001904,0.11342723,0.15189811,0.17788554,0.22283886,0.24849775,0.28436288,0.31945944,0.36934990,0.40835746,0.44449649,0.44829825,0.47526366,0.46887032,0.47128695,0.42177766,0.40317264,0.33768000,0.31086380,0.28291975,0.25125185,0.25123383,0.22227080,0.20692973,0.19987879,0.19661922,0.16385067,0.14917464,0.12888105,0.11529319,0.09825108,0.07253878,0.07094749,0.06611578,0.05947424,0.06199213,0.07092336,0.07067579,0.06889238,0.06459761,0.07184595,0.06543914,0.06615704,0.07620501,0.08202105,0.08267808,0.09404618,0.09118665,0.11248525,0.13094475,0.12731299,0.14526831,0.16022530,0.16987248,0.18165630,0.18940622,0.19934545,0.19744282,0.18643585,0.18636440,0.17457424,0.16798898,0.15350816,0.15020037,0.12444210,0.12228890,0.12492030,0.11926720,0.11772567,0.11663245,0.12203261,0.13255630,0.13490566,0.13463436,0.15492233,0.18496048,0.18560242,0.21860454,0.23281763,0.25003366,0.28091130,0.30241576,0.34054556,0.34029486,0.34519457,0.35853115,0.37418706,0.35948813,0.35446655,0.34036297,0.31996641,0.28769852,0.26362264,0.22688023,0.21943849,0.19493641,0.17820311,0.17272960,0.17195754,0.16699845,0.15171208,0.15746870,0.14622698,0.13385068,0.15069864,0.15199706,0.14248476,0.13618657,0.12662160,0.12343790,0.11759393,0.12214475,0.12246229,0.11816333,0.13526338,0.13415028,0.16849356,0.17346420,0.19187336,0.22503246,0.24925319,0.28458496,0.33177212,0.38067197,0.44134373,0.45991560,0.49666135,0.55743271,0.57311654,0.60142828,0.62227039,0.62835000,0.62265994,0.63505374,0.61672654,0.61392152,0.60956307,0.60439281,0.57883372,0.51192919,0.47105365,0.40516416,0.36294418,0.27594875,0.23943930,0.17297347,0.14211176,0.12707726,0.12508825,0.11508580,0.11135585,0.12005492,0.10571814,0.11678128,0.11578623,0.11424283,0.12259550,0.11452947,0.12683412,0.13094282,0.12853922,0.12918287,0.13407249,0.13450185,0.14289199,0.13281205,0.14590709,0.14110879,0.14022356
0.03181140,0.03305562,0.02856805,0.02302657,0.02640476,0.02317830,0.03419912,0.02395780,0.02943688,0.01745239,0.01107529,0.01494348,0.00561588,0.01374661,0.01311516,0.00268939,0.00992987,0.00285734,0.01305528,0.01871003,0.00990108,0.01898355,0.01452360,0.01783114,0.01547395,0.02608371,0.02603853,0.02406849,0.02163146,0.03101379,0.01486367,0.02036479,0.02032783,0.01698413,0.01216587,0.01774897,0.01409662,0.03137081,0.03562426,0.04659007,0.06023246,0.05153096,0.05067197,0.03835116,0.05181707,0.05332563,0.04181571,0.03688695,0.02059732,0.01999373,0.01397139,0.01147492,0.01371946,0.02034692,0.00997943,0.01439839,0.00828266,0.01595887,0.00660136,0.00521470,0.01718116,0.01715016,0.01656809,0.01334361,0.01336651,0.00979360,0.02218966,0.01004965,0.01077382,0.01388850,0.01481827,0.02502308,0.02150454,0.02473084,0.04036246,0.03759587,0.06473392,0.05597722,0.06916904,0.08023442,0.08380158,0.10844544,0.12273925,0.14064722,0.17243132,0.20441961,0.23064723,0.26669113,0.31190094,0.34971525,0.36556491,0.41389706,0.44331787,0.47565092,0.47815034,0.51556854,0.52550828,0.51745975,0.49544074,0.47370637,0.44245946,0.39387043,0.33506942,0.29283908,0.23222381,0.19220810,0.15129434,0.11555752,0.08091261,0.06785916,0.06123566,0.05076502,0.06494870,0.06119657,0.06180626,0.06132363,0.05354052,0.05694039,0.05023051,0.05305850,0.05234473,0.04742334,0.04641997,0.03404443,0.04141696,0.03163579,0.03191798,0.03057765,0.03980612,0.04063617,0.04609793,0.04744127,0.05419519,0.07324999,0.08152236,0.07134587,0.08300763,0.09278549,0.10127603,0.10940949,0.09837456,0.11387457,0.12356091,0.12151641,0.11958262,0.11066084,0.10508106,0.11264696,0.11218102,0.12000175,0.13513027,0.15452529,0.21016209,0.20706018,0.24072159,0.26847740,0.27105263,0.25309352,0.25047295,0.22084173,0.18028775,0.14623564,0.11217091,0.08848560,0.07203516,0.05848187,0.04500742,0.03967959,0.04779326,0.04109491,0.03779757,0.04057780,0.04542490,0.05443262,0.05627664,0.06690232,0.08672699,0.09143428,0.11796696,0.13574020,0.16247419,0.17458210,0.21029680,0.23920056,0.27977671,0.29948925,0.31049890,0.31435652,0.32682339,0.32825549,0.32116740,0.29853693,0.29123196,0.27738572,0.23466322,0.21063423,0.18212634,0.16592369,0.13883633,0.13195140,0.12396927,0.11980584,0.11918166,0.12226516,0.12354327,0.13713440,0.15609581,0.18951082,0.22447039,0.24480929,0.29351623,0.33531498,0.36197266,0.42244334,0.48070055,0.50301178,0.51795382,0.56258330,0.54373011,0.54174638,0.53473537,0.50871432,0.47002847,0.42270181,0.37097510,0.34369544,0.28520888,0.25158963,0.22222537,0.17894778,0.15896781,0.15124038,0.13628903,0.13482090,0.12860605,0.11970213,0.12456231,0.12617827,0.10269202,0.11740439,0.10390440,0.10529260,0.09546666,0.09980651,0.08510933,0.10258222,0.11911878,0.13079380,0.15520193,0.18781859,0.22899178,0.28150703,0.32186747,0.38111075,0.42473301,0.46490278,0.48776364,0.47450834,0.47974782,0.46717397,0.44449907,0.43250905,0.41130809,0.41265824,0.40492981,0.41567111,0.42486782,0.43481444,0.43249737,0.40908072,0.39975238,0.35217936,0.30409781,0.27266344,0.20765011,0.18018600,0.15027761,0.12500503,0.09178236,0.09645430,0.08836531,0.09626528,0.08687073,0.09441511,0.08726840,0.10721039,0.10187483,0.10555333,0.10718960,0.11533772,0.11980174,0.12343840,0.13346392,0.13233580,0.13654495,0.13714513,0.15550658,0.15661974,0.14404263,0.15826917,0.16033535
0.06513222,0.06836442,0.07307411,0.08430323,0.08330336,0.09689165,0.10032499,0.10082921,0.08612662,0.06066596,0.05820239,0.05137792,0.04822225,0.03547714,0.03137509,0.03108780,0.03068009,0.00761901,0.02604236,0.02201843,0.03272003,0.01717726,0.02698702,0.03888943,0.06929270,0.07941576,0.07646312,0.11434625,0.11144321,0.09859541,0.09401757,0.07539464,0.06633221,0.05677084,0.06092660,0.07439387,0.09173441,0.08935734,0.10911566,0.11830968,0.14710418,0.15197758,0.15671548,0.16730855,0.13829501,0.12903725,0.10438795,0.09620592,0.06329001,0.05769655,0.03596988,0.03740177,0.02872672,0.01914119,0.02938281,0.02174316,0.03080307,0.02324108,0.02066407,0.01944927,0.01012930,0.01102407,0.01834731,0.01266605,0.01611876,0.02217896,0.01030800,0.02313417,0.02945760,0.02358158,0.02129103,0.02647802,0.04207182,0.05846626,0.07532804,0.08961610,0.10730251,0.13174859,0.14096402,0.14622523,0.14604541,0.13412340,0.12978312,0.13447551,0.15312937,0.17468092,0.19576920,0.22237978,0.22615151,0.25549345,0.25573233,0.27046619,0.27590333,0.27406623,0.29959206,0.30841272,0.34455242,0.36110084,0.40009540,0.42336635,0.43302256,0.42901729,0.43046766,0.40284869,0.37026300,0.31844982,0.25570022,0.19690040,0.15440599,0.12119005,0.08436960,0.06509970,0.05632634,0.03624984,0.04043864,0.03113084,0.03456752,0.03418803,0.03024080,0.02518473,0.03145675,0.03175865,0.03249973,0.03630676,0.04617888,0.05404580,0.07476633,0.09920032,0.10474758,0.13312565,0.17115487,0.20711437,0.25034336,0.26871039,0.30841778,0.33408526,0.35764790,0.37318015,0.37447882,0.37622955,0.38984301,0.37314294,0.36150433,0.34341785,0.33018130,0.30514704,0.26699653,0.23528656,0.22101568,0.18115425,0.16353572,0.15268047,0.13917986,0.13137814,0.12625731,0.10486101,0.10592529,0.10565875,0.09396301,0.07630984,0.06735486,0.06601780,0.04607963,0.03843186,0.03540976,0.03378457,0.02854219,0.03662394,0.03634800,0.02732920,0.04328880,0.03614821,0.04527500,0.05588945,0.05758157,0.06153609,0.06924191,0.09608370,0.09116966,0.12186857,0.14945552,0.15320565,0.18866808,0.22117164,0.22564065,0.25643309,0.26286374,0.28667001,0.28279625,0.28382455,0.26483886,0.25099114,0.24779991,0.22898715,0.22083100,0.20098871,0.18493198,0.16912447,0.18113994,0.16725052,0.18948921,0.21571971,0.24386113,0.27367662,0.31876210,0.34157456,0.37797982,0.42759332,0.47080725,0.47984160,0.46926259,0.48675529,0.48978895,0.48885275,0.43768386,0.42749891,0.39011104,0.36236738,0.33261530,0.29349740,0.25854953,0.23744289,0.20311602,0.19826515,0.16015775,0.16101739,0.15325570,0.15847203,0.18401373,0.19980543,0.23165062,0.25871307,0.30511458,0.33493722,0.36253193,0.36539392,0.37466576,0.38845545,0.32684295,0.33140774,0.29231454,0.23499823,0.21664330,0.17386727,0.14742410,0.11923561,0.10690955,0.09292291,0.08530855,0.10625268,0.10380210,0.12635193,0.15985833,0.19410326,0.23599759,0.28598867,0.32916279,0.38319397,0.41507285,0.46171022,0.49406891,0.48569006,0.45458022,0.45419351,0.42824862,0.41325542,0.38744786,0.36724853,0.34053527,0.31553381,0.29136645,0.26992064,0.22669505,0.18864295,0.15301789,0.13195477,0.10776483,0.09195465,0.06953064,0.06472804,0.05309925,0.06411969,0.06773568,0.05888229,0.06032939,0.07483104,0.07400620,0.07264467,0.09180992,0.08748804,0.07763753,0.09758779,0.10090385,0.09914281,0.10390422,0.10943709,0.10628245,0.12613404,0.12828685,0.12425635,0.12154311
0.00626140,0.01925256,0.01647054,0.00864515,0.02711582,0.01843666,0.02824264,0.02058515,0.01697874,0.00739330,0.00979743,0.01146308,0.01432086,0.00639347,0.00778800,0.00076811,0.00890895,0.00030975,0.01693728,0.00297627,0.00248331,0.01053778,0.01005851,0.00601071,0.01782260,0.01514353,0.03530838,0.03594274,0.04031736,0.03812072,0.03837118,0.03581677,0.03406938,0.04264021,0.05959668,0.07011384,0.10135947,0.13291666,0.14762976,0.18541569,0.21426926,0.23975630,0.23984889,0.23832388,0.21973413,0.17043828,0.15046097,0.11728177,0.09321939,0.07124140,0.05308778,0.03828226,0.02834618,0.02667227,0.02877226,0.01341637,0.02109953,0.02362509,0.01614384,0.02121464,0.01496326,0.01708460,0.01836716,0.02273652,0.02336998,0.01498654,0.01990860,0.02203364,0.02263014,0.02554772,0.02669341,0.03483644,0.05449572,0.06439722,0.10483167,0.13650041,0.17701678,0.19830770,0.19957365,0.19639960,0.17768029,0.14933120,0.12245100,0.12127590,0.11578267,0.10710857,0.11638367,0.14268477,0.16994435,0.18235130,0.21880796,0.24748544,0.28223719,0.29863723,0.33493747,0.36175430,0.38458037,0.39853319,0.42149098,0.40479492,0.38215419,0.37240592,0.34100692,0.27589447,0.23954911,0.20484023,0.16379535,0.12578175,0.11100793,0.09165882,0.08821066,0.09223805,0.08649942,0.08182440,0.08251399,0.08734462,0.07889113,0.07924395,0.07699173,0.09110807,0.06906904,0.07291974,0.06794293,0.05685683,0.05660967,0.05897168,0.05357446,0.07182223,0.06720256,0.08407599,0.10008212,0.10561213,0.13721516,0.14714632,0.17307315,0.21800010,0.25501671,0.25974707,0.29995325,0.32555877,0.37170031,0.40281562,0.41483378,0.44511741,0.41054402,0.39504189,0.38609495,0.36619596,0.31537963,0.28967337,0.28019397,0.26795197,0.25633748,0.25946253,0.26557925,0.24134283,0.26631281,0.24309269,0.21298310,0.18652559,0.14777709,0.12179548,0.09546115,0.08014270,0.06630122,0.06014763,0.06181461,0.05626914,0.05543140,0.04981312,0.04193955,0.06053007,0.05075913,0.05753757,0.05601773,0.05642098,0.06027202,0.06569139,0.06622193,0.06393969,0.07219663,0.08762928,0.08993499,0.09412440,0.10832672,0.10951485,0.10135635,0.10939905,0.10575996,0.10341795,0.11031186,0.09587955,0.10980089,0.10940457,0.09345949,0.09103990,0.09369522,0.08817252,0.10265279,0.09870768,0.11337139,0.12290163,0.13808216,0.14687466,0.15991778,0.19922218,0.22194532,0.24994871,0.28826448,0.30344852,0.34133951,0.37150974,0.43350404,0.45084229,0.48567849,0.49093368,0.50444811,0.52517859,0.52733638,0.51005640,0.48538352,0.46991438,0.41190864,0.39764969,0.32866694,0.29232075,0.26565162,0.23603894,0.22025440,0.19308187,0.18114140,0.18385029,0.18760260,0.19391503,0.17926892,0.18570639,0.19123575,0.18837171,0.17269781,0.15886000,0.14259260,0.14878563,0.11944383,0.12768170,0.12170125,0.12189462,0.13709581,0.14299969,0.17639370,0.20883578,0.26066996,0.29524601,0.34284152,0.39204531,0.45293278,0.49364858,0.54056747,0.58645073,0.59786593,0.61774827,0.62451082,0.65952025,0.65667107,0.64261326,0.64915875,0.64306290,0.61935904,0.61712111,0.61817060,0.57900773,0.54102805,0.46644737,0.41661507,0.32470789,0.28191819,0.20153844,0.16507301,0.13677720,0.10640438,0.09334777,0.07769969,0.08730238,0.08053675,0.07156537,0.08252298,0.06986824,0.07395805,0.07109445,0.07935005,0.08277835,0.07144095,0.06785149,0.08066178,0.08033900,0.08247584,0.07863841,0.08816542,0.08113521,0.08031814,0.07427549,0.08101640
-0.00397617,-0.01264287,-0.00979637,0.00111003,-0.00826306,-0.00499739,-0.00396368,-0.00912573,-0.00493471,-0.02259390,-0.00387739,-0.00635674,-0.01360338,-0.01717918,-0.01115475,-0.01648772,-0.00866007,-0.00573978,0.00374784,-0.00308216,-0.01081464,-0.00040584,-0.01191669,-0.00378803,-0.00177023,0.00727153,-0.00264023,-0.00617286,-0.00640198,0.00175032,-0.00659287,0.01080135,0.01392368,0.02004732,0.02898598,0.04211270,0.06138377,0.07177855,0.10460483,0.12108147,0.13272009,0.13344055,0.14192567,0.13501428,0.12128834,0.10445357,0.08461420,0.07230805,0.04198405,0.04307447,0.03285523,0.01669733,0.00928876,0.01382400,0.01328789,0.02173508,0.01411986,0.00709000,0.01665539,0.01353130,0.01066670,0.01707784,0.00880538,0.00756533,0.01735635,0.01532601,0.00368856,0.00807970,0.01432663,0.01758419,0.01750732,0.02599102,0.04128980,0.05009722,0.08627879,0.10551188,0.10462067,0.11991015,0.15124901,0.15712678,0.13817123,0.14132228,0.14744933,0.16548370,0.17748492,0.21798390,0.25910860,0.28220126,0.34963528,0.37527845,0.39555446,0.45001349,0.47593512,0.47713570,0.46271796,0.47338052,0.44780858,0.43433863,0.39929674,0.38991801,0.29852596,0.26971601,0.22209243,0.17569576,0.14214946,0.12149040,0.10152838,0.08389764,0.07074738,0.08323677,0.10235265,0.11782110,0.14094733,0.16745539,0.18155064,0.17991563,0.18542560,0.17099548,0.15141319,0.13486970,0.11984806,0.09702104,0.08672844,0.06259549,0.05216563,0.04046387,0.04872564,0.04815523,0.05156037,0.03976640,0.04809347,0.04908521,0.06519578,0.06146288,0.08196037,0.10067522,0.11684785,0.13626378,0.16073087,0.20413401,0.21102654,0.23081662,0.24024967,0.26216428,0.23909385,0.25364503,0.22858887,0.22322205,0.21605136,0.19193314,0.19300792,0.20045955,0.19925468,0.20748305,0.21776905,0.23544289,0.21918674,0.20227225,0.18232928,0.15266053,0.13110062,0.10217025,0.08426159,0.07115051,0.06035064,0.05106095,0.05242758,0.05520794,0.04705247,0.04346100,0.05523841,0.04891675,0.05073011,0.05770181,0.05628936,0.07045416,0.06267488,0.07927732,0.09161694,0.10017152,0.10376156,0.10342256,0.13493966,0.14042858,0.14620078,0.15104604,0.16188847,0.17090681,0.16793648,0.17306426,0.16401648,0.15463550,0.14941430,0.12472558,0.12546034,0.11427703,0.11163115,0.11212895,0.08734166,0.08949442,0.07588222,0.09807508,0.08849567,0.10094220,0.11191530,0.13160821,0.15139813,0.18285679,0.22695983,0.24832777,0.31201469,0.34815774,0.40663163,0.47261775,0.53004857,0.60112744,0.62413709,0.60734553,0.65557014,0.63108818,0.64403560,0.59435337,0.53948530,0.49963989,0.44689008,0.38427957,0.33290287,0.28805967,0.25700212,0.21765970,0.18568645,0.15292101,0.13838468,0.11206173,0.10831234,0.10192563,0.09251312,0.08469905,0.09822287,0.08104381,0.09324207,0.09439176,0.09858322,0.11706767,0.13772623,0.16531982,0.20034846,0.23490464,0.27526067,0.31951322,0.36797626,0.42348240,0.46737737,0.50762537,0.54299426,0.55991733,0.56808399,0.57151840,0.54259351,0.54409379,0.52195532,0.50268044,0.49231649,0.48868511,0.49069400,0.48735980,0.49686562,0.48782501,0.45584553,0.43301745,0.39429964,0.36188613,0.29747289,0.24055459,0.20849885,0.15706575,0.14765505,0.11611118,0.10650000,0.10815210,0.10201056,0.08651434,0.09548841,0.08959746,0.09820697,0.09644767,0.09814349,0.10228535,0.10104733,0.10765541,0.11217310,0.12774579,0.11917428,0.11026932,0.12205770,0.11323297,0.12312107,0.11250730,0.11613368,0.11538102,0.12588586
0.05222709,0.04913181,0.04153729,0.04958544,0.03762808,0.04399249,0.04522283,0.04368936,0.04434480,0.05089275,0.05020736,0.03948923,0.03457100,0.03182976,0.03163173,0.03249419,0.04100205,0.03944666,0.03165746,0.03360261,0.04427131,0.02866147,0.04166642,0.04675676,0.04000302,0.04863110,0.05056269,0.05059991,0.04493657,0.05094300,0.04425148,0.04552898,0.05942643,0.05346723,0.05301509,0.07627266,0.09178225,0.10820293,0.12217807,0.13727530,0.13396604,0.16475381,0.15840269,0.15951355,0.15656472,0.14085309,0.12215135,0.11168345,0.09845735,0.07239235,0.06117779,0.06998478,0.05807455,0.04966042,0.04384141,0.04974915,0.05672535,0.04324588,0.05026471,0.04106209,0.05248629,0.04833498,0.05653375,0.05101947,0.04928071,0.04498119,0.04448127,0.04798377,0.05436869,0.05305661,0.05699779,0.06151213,0.07360118,0.09086737,0.09956804,0.12370471,0.13047089,0.14636219,0.16685623,0.18560241,0.18070853,0.18776621,0.21430005,0.23252424,0.26594840,0.30504987,0.36617395,0.41449336,0.46148111,0.49325361,0.52127890,0.56789204,0.54667924,0.53601571,0.50846614,0.46674763,0.42641917,0.39545523,0.33153050,0.31463361,0.25634455,0.21934110,0.18740744,0.17570455,0.16754592,0.14188021,0.12652837,0.11443698,0.12008417,0.12364015,0.13620297,0.15581881,0.18703508,0.20630056,0.22986909,0.23139333,0.24503960,0.23733650,0.20910096,0.19220013,0.17984966,0.14997563,0.13361659,0.10962706,0.09470308,0.08103970,0.06899349,0.08366841,0.07620817,0.08146173,0.08362410,0.09726500,0.10078039,0.10924992,0.12149788,0.13564467,0.15489979,0.17525875,0.17308825,0.20391552,0.22636822,0.25167020,0.26142159,0.25800234,0.25571410,0.25734295,0.23933677,0.23500293,0.22379473,0.20030003,0.18026228,0.15261519,0.13157049,0.12748169,0.12967520,0.13246699,0.12219780,0.11185275,0.09865288,0.09970293,0.08653276,0.07715021,0.07580644,0.07146671,0.08400812,0.06986844,0.07914864,0.07473834,0.07456284,0.07803322,0.07973638,0.09265494,0.07845751,0.08702648,0.09855491,0.10983150,0.10854671,0.12757231,0.15435337,0.16403083,0.18449297,0.20669619,0.22741911,0.26240404,0.26903135,0.30006722,0.31376390,0.30924906,0.32802295,0.32831607,0.32779995,0.30424357,0.28248888,0.26477002,0.23150437,0.22415687,0.20369940,0.17197599,0.15200363,0.14325345,0.14160958,0.13572469,0.14629951,0.14302646,0.14486683,0.16177575,0.17161884,0.18310830,0.20201052,0.23007112,0.27056781,0.29837898,0.34189853,0.35707155,0.40050498,0.42365513,0.45397529,0.47504305,0.48688426,0.52022951,0.50569806,0.48419149,0.46399390,0.44881537,0.41862064,0.38314602,0.33428969,0.29728743,0.26048823,0.24805989,0.21970729,0.21057276,0.18301826,0.17573256,0.16158944,0.14824430,0.16003747,0.13785505,0.14833326,0.14697043,0.12962095,0.13172377,0.13446082,0.13616412,0.15272996,0.14995529,0.16977549,0.20393037,0.22451074,0.26832213,0.28943944,0.32465761,0.37365188,0.38322293,0.40190162,0.42519508,0.43745860,0.44117787,0.43851048,0.45079870,0.41677087,0.41175344,0.40186947,0.36844815,0.36898312,0.35090991,0.32459061,0.33367867,0.32427891,0.29344186,0.29433428,0.26413827,0.24416469,0.22215591,0.19633763,0.16780683,0.14509458,0.14283193,0.12285303,0.12054347,0.11552382,0.11946299,0.11502994,0.12346043,0.12605021,0.13170911,0.13680395,0.14943503,0.14119569,0.14577639,0.14774073,0.14974070,0.16897194,0.16058167,0.15781056,0.16699178,0.18038342,0.16961467,0.18931930,0.18612502,0.18227403
0.01777794,0.00488890,0.01171757,0.01180189,0.00947048,-0.00357574,0.00416838,-0.00047196,0.00534627,-0.00617757,0.00020716,-0.00370227,-0.00832304,-0.00460864,-0.01420347,-0.01151300,0.00111895,-0.00696781,-0.01569416,-0.01306798,-0.01517713,-0.00432834,-0.01303504,-0.00785978,0.00304174,0.00725416,0.00468428,0.01061173,0.01435609,0.00769127,0.00884600,0.01394241,0.01128536,0.01301428,0.01562230,0.02515528,0.05086317,0.06458001,0.08469522,0.10350320,0.11160188,0.13650818,0.14570003,0.14780045,0.14799792,0.11812498,0.10016186,0.08547020,0.05135957,0.04503114,0.03002811,0.01673971,0.01243241,0.00784357,-0.00554962,0.00109654,-0.00973341,0.00284396,-0.01068802,-0.01447489,-0.00166508,-0.00186309,-0.00634994,-0.00678837,-0.01127829,0.00405495,0.00092777,-0.00841106,-0.00381352,-0.00172372,0.00231053,0.01040812,0.00195098,0.02788070,0.04044389,0.06785054,0.10801754,0.11302261,0.12447510,0.14400623,0.16569162,0.15639251,0.14456017,0.14093095,0.15609426,0.18477264,0.20260424,0.24285728,0.26910578,0.29106696,0.31606562,0.34974968,0.34842687,0.37576435,0.36826061,0.39184377,0.37305800,0.36967175,0.35910474,0.34964240,0.32679800,0.30188929,0.26321634,0.23242298,0.20278419,0.17679608,0.13360126,0.09950906,0.06163901,0.05716278,0.03768402,0.03706744,0.02987281,0.03230277,0.02500203,0.03680720,0.02631112,0.03287654,0.02959552,0.02866741,0.03244752,0.02770095,0.01908755,0.01304156,0.01107904,0.01480953,0.01467167,0.02486949,0.02193812,0.02531320,0.03991985,0.05517450,0.06693644,0.08597451,0.10467386,0.11569054,0.13831022,0.15324845,0.18465197,0.20070063,0.21429959,0.24529619,0.26537381,0.26237029,0.27389659,0.27537813,0.23810037,0.24106515,0.22839351,0.19970523,0.18418397,0.17664390,0.17139163,0.16491451,0.19123809,0.18520725,0.18961227,0.16642626,0.15606213,0.13518093,0.10770302,0.08080917,0.06958165,0.04933491,0.02824683,0.02984233,0.01937156,0.02615401,0.02137156,0.01113074,0.01612853,0.02780886,0.02467791,0.02596098,0.03779800,0.03550849,0.05948322,0.06772925,0.08504478,0.10320604,0.14474984,0.16111464,0.18645514,0.20948778,0.24308428,0.27530723,0.27395088,0.29920218,0.31584126,0.31442170,0.31836841,0.28620187,0.28325323,0.24980404,0.22831832,0.20704536,0.19495539,0.14925579,0.13723685,0.10802799,0.10969225,0.09387683,0.09701104,0.09363307,0.10905716,0.12914302,0.14009699,0.15124588,0.17360791,0.19908031,0.21891815,0.23901307,0.27933278,0.29787512,0.30830287,0.34468234,0.35655414,0.35851959,0.35596366,0.36192924,0.33660518,0.32802238,0.31493314,0.27384537,0.24178716,0.21078892,0.18614672,0.16760214,0.14915640,0.13287291,0.12969144,0.11017230,0.10837547,0.11129354,0.11279806,0.11610848,0.11187652,0.10981795,0.10626966,0.10345177,0.10536432,0.08695475,0.09180138,0.07888651,0.06965250,0.07125333,0.05670566,0.08129951,0.08255950,0.10088933,0.13994316,0.15862750,0.21042392,0.23389604,0.28022913,0.31418845,0.33588817,0.37128084,0.40982560,0.41274304,0.44822435,0.44742686,0.46358522,0.45919055,0.43764469,0.44648088,0.45988960,0.43531035,0.41857535,0.42006796,0.41183591,0.37408815,0.32728881,0.28467758,0.22554929,0.17179735,0.14719354,0.11401298,0.08182121,0.06642118,0.06015771,0.04584958,0.04974705,0.05587807,0.05537747,0.06247480,0.07100131,0.06505625,0.08050340,0.07519075,0.07824388,0.09096097,0.09721967,0.09784139,0.10245400,0.11529594,0.12856573,0.11824870,0.12463175,0.11142786,0.12681365
-0.04135772,-0.04516468,-0.03648616,-0.04604557,-0.04748412,-0.04634735,-0.04512978,-0.04730652,-0.04519615,-0.04716756,-0.04354871,-0.04908441,-0.05162133,-0.04815907,-0.04546677,-0.05569093,-0.05544342,-0.05433433,-0.04991610,-0.06143843,-0.05449823,-0.05724974,-0.04606951,-0.03750673,-0.04470053,-0.05116133,-0.03817142,-0.04516373,-0.04572597,-0.04773318,-0.02561990,-0.03105797,-0.02716789,-0.02127850,-0.01118998,0.00858370,0.03312198,0.06659499,0.07960102,0.11487683,0.12668799,0.13361237,0.14578011,0.13345968,0.10903226,0.10606298,0.08052657,0.04171577,0.01812764,-0.00158633,-0.00488373,-0.02319827,-0.03253529,-0.03384520,-0.04041908,-0.04030842,-0.04559613,-0.03406067,-0.02848689,-0.03792065,-0.04293638,-0.04293828,-0.03663708,-0.03238454,-0.03266468,-0.04378340,-0.03642942,-0.03701510,-0.03709599,-0.03189439,-0.03124413,-0.01201202,-0.00233290,0.01865848,0.03963866,0.07124003,0.11248913,0.10825161,0.13113893,0.12880694,0.13529663,0.13244368,0.11801930,0.13864538,0.13987468,0.18250700,0.21062923,0.25481649,0.27441314,0.32458167,0.34125490,0.35603045,0.35057279,0.33538054,0.30427549,0.29256885,0.26511675,0.22793402,0.19923076,0.16946157,0.14320898,0.10838964,0.09544213,0.07206488,0.04155069,0.03959549,0.02677742,0.02293574,0.01946550,0.02142942,0.03501393,0.04884318,0.04679636,0.06846549,0.07709048,0.09091638,0.08207001,0.07371360,0.08323362,0.06873621,0.05884283,0.02747397,0.01099801,0.00645515,-0.00628779,-0.00071325,-0.00700196,-0.00510205,-0.01493220,0.00869824,0.00638827,0.02448671,0.02987392,0.03679747,0.06546946,0.08395602,0.11171054,0.13550788,0.17787167,0.19737033,0.23798038,0.25087912,0.28098408,0.29731470,0.28447258,0.27026573,0.25815104,0.24439357,0.20679518,0.16856731,0.14415012,0.11903986,0.10738271,0.08755308,0.08633583,0.06823480,0.05362308,0.06052911,0.04588983,0.02909538,0.01854078,0.01894792,0.00355237,0.00745357,0.00135285,0.00396258,-0.01123884,0.00328452,-0.00711876,-0.00350459,-0.00337749,0.00153409,0.00261007,0.01022097,0.01052843,0.02925849,0.03384189,0.05329691,0.06219813,0.07533190,0.09561398,0.11990746,0.13207033,0.15294220,0.18234565,0.19625852,0.19843898,0.21422373,0.20177937,0.20138747,0.19030838,0.18388982,0.16286732,0.14947710,0.11643298,0.10833163,0.10326985,0.07401063,0.07164001,0.05379457,0.05402612,0.04915221,0.04517798,0.06023773,0.05469027,0.07878079,0.07387325,0.09087157,0.10863984,0.12867149,0.15628563,0.19050675,0.21436642,0.24027068,0.26469504,0.29073402,0.28941353,0.32559563,0.31515080,0.32239449,0.32436930,0.29960204,0.29191458,0.26406148,0.23447689,0.20386058,0.19834285,0.15037494,0.13802315,0.11739823,0.10391250,0.09094468,0.06958583,0.07062798,0.06481729,0.06926991,0.04335186,0.05177309,0.04461492,0.04356082,0.04435497,0.05212329,0.04777392,0.05556215,0.05625200,0.07408443,0.08341653,0.11328911,0.13809362,0.15846666,0.19031662,0.23425907,0.23424123,0.26776669,0.30049313,0.30945690,0.34446610,0.37248867,0.37939653,0.41334564,0.39602052,0.39269076,0.40052759,0.39279366,0.37811425,0.37704651,0.36605043,0.34723796,0.35407086,0.32324041,0.29946108,0.25982681,0.22877107,0.17714094,0.15513658,0.10781099,0.10435513,0.06376310,0.05635569,0.04855171,0.04633701,0.04014690,0.03434658,0.04186705,0.04819371,0.04882963,0.05238420,0.05655446,0.06010757,0.06737996,0.06113895,0.06916440,0.06691799,0.07493093,0.08629280,0.08562268,0.08135661,0.08434641,0.08599434,0.08480970,0.09605537
