1000,1005,1010,1015,1020,1025,1030,1035,1040,1045,1050,1055,1060,1065,1070,1075,1080,1085,1090,1095,1100,1105,1110,1115,1120,1125,1130,1135,1140,1145,1150,1155,1160,1165,1170,1175,1180,1185,1190,1195,1200,1205,1210,1215,1220,1225,1230,1235,1240,1245,1250,1255,1260,1265,1270,1275,1280,1285,1290,1295,1300,1305,1310,1315,1320,1325,1330,1335,1340,1345,1350,1355,1360,1365,1370,1375,1380,1385,1390,1395,1400,1405,1410,1415,1420,1425,1430,1435,1440,1445,1450,1455,1460,1465,1470,1475,1480,1485,1490,1495,1500,1505,1510,1515,1520,1525,1530,1535,1540,1545,1550,1555,1560,1565,1570,1575,1580,1585,1590,1595,1600,1605,1610,1615,1620,1625,1630,1635,1640,1645,1650,1655,1660,1665,1670,1675,1680,1685,1690,1695,1700,1705,1710,1715,1720,1725,1730,1735,1740,1745,1750,1755,1760,1765,1770,1775,1780,1785,1790,1795,1800,1805,1810,1815,1820,1825,1830,1835,1840,1845,1850,1855,1860,1865,1870,1875,1880,1885,1890,1895,1900,1905,1910,1915,1920,1925,1930,1935,1940,1945,1950,1955,1960,1965,1970,1975,1980,1985,1990,1995,2000,2005,2010,2015,2020,2025,2030,2035,2040,2045,2050,2055,2060,2065,2070,2075,2080,2085,2090,2095,2100,2105,2110,2115,2120,2125,2130,2135,2140,2145,2150,2155,2160,2165,2170,2175,2180,2185,2190,2195,2200,2205,2210,2215,2220,2225,2230,2235,2240,2245,2250,2255,2260,2265,2270,2275,2280,2285,2290,2295,2300,2305,2310,2315,2320,2325,2330,2335,2340,2345,2350,2355,2360,2365,2370,2375,2380,2385,2390,2395,2400,2405,2410,2415,2420,2425,2430,2435,2440,2445,2450,2455,2460,2465,2470,2475,2480,2485,2490,2495,2500
0.05866659,0.05306473,0.03967866,0.06226303,0.08420047,0.07634749,0.08354087,0.06203479,0.05942788,0.05169040,0.02554653,0.02660050,0.02628333,0.03787785,0.02994912,0.01812734,0.01020161,0.01738534,0.00875969,0.02698679,0.00902149,0.02750738,0.02969098,0.04450826,0.05070703,0.07506749,0.08794381,0.09803970,0.10384336,0.08258627,0.09096558,0.09501406,0.05915375,0.05463887,0.04833583,0.06769435,0.08786438,0.10250473,0.13361908,0.15418727,0.18477303,0.18917830,0.19970947,0.16500169,0.16152768,0.15197267,0.10571893,0.07685657,0.07610537,0.05617538,0.06164995,0.02782754,0.03198956,0.02602349,0.01717410,0.00828035,0.01529309,0.02896614,0.00733289,0.02402183,0.01033952,0.01540274,0.01900999,0.01507487,0.00835324,0.02466095,0.02359954,-0.00346278,0.01392130,0.02485564,0.03907348,0.02926690,0.04902926,0.08320571,0.09154103,0.11080657,0.14779337,0.15951750,0.17011596,0.16700518,0.16794666,0.14033038,0.16296326,0.15913624,0.19937021,0.20130124,0.23012263,0.26032409,0.30450196,0.33348366,0.33328821,0.38696262,0.35159902,0.38061138,0.36920648,0.40365072,0.40800417,0.40067712,0.43699478,0.42854767,0.42839201,0.40635862,0.39725906,0.37122401,0.34078571,0.29616800,0.25321803,0.20628238,0.16740324,0.13192465,0.13449371,0.14811639,0.12434454,0.14256024,0.15168794,0.15507140,0.16253432,0.14574499,0.13394242,0.12750358,0.10920697,0.07913848,0.01540957,0.02825280,0.07781430,0.05374056,0.04677631,0.06525880,0.12810449,0.11245599,0.23804844,0.27157083,0.23295119,0.22596667,0.36753739,0.37434964,0.31931014,0.38943580,0.41217956,0.41489222,0.43688155,0.41159838,0.40568552,0.39970105,0.39308395,0.35082028,0.32343637,0.27702143,0.25622193,0.19574404,0.18984711,0.14923146,0.12391748,0.11429107,0.09148157,0.08898184,0.06852795,0.05300400,0.05036818,0.04706940,0.05483612,0.02441336,0.04547912,0.03239613,0.02947612,0.03728840,0.03671298,0.03448277,0.01492289,0.03561028,0.03632609,0.03081487,0.03673215,0.03447838,0.03214021,0.03341767,0.05439472,0.04159073,0.06693942,0.06936159,0.07946085,0.08542517,0.10641904,0.12595424,0.12837204,0.14238060,0.15232677,0.14270016,0.15447108,0.13807162,0.14966570,0.13660529,0.13046825,0.13160203,0.13265908,0.13125861,0.12939163,0.12462739,0.13163144,0.15637479,0.16855857,0.19726750,0.22348709,0.25456232,0.31705458,0.36462470,0.39413242,0.43600610,0.48906909,0.51898266,0.54970829,0.56273978,0.54021612,0.54860317,0.56132218,0.55651052,0.54385893,0.51364278,0.51664790,0.49029590,0.46376513,0.42657139,0.38545015,0.40046663,0.34394127,0.30657582,0.29034579,0.27624432,0.27096725,0.30389134,0.28653687,0.31739792,0.32204660,0.35593894,0.34520550,0.35046080,0.37736531,0.32863730,0.34614105,0.30708775,0.26880890,0.23802429,0.21300514,0.19355201,0.17728690,0.15642464,0.15336397,0.16238251,0.17519558,0.18592785,0.21658632,0.26188861,0.29445236,0.33927074,0.38051207,0.42358048,0.46967273,0.51475449,0.52192296,0.54509873,0.56301246,0.54263917,0.52840679,0.47424780,0.45932129,0.42164572,0.42073723,0.37201332,0.36075593,0.31672452,0.31521296,0.25868228,0.24746376,0.18331390,0.14348261,0.11285019,0.11131418,0.06596329,0.04991411,0.06111859,0.03091560,0.04075553,0.05623571,0.04869950,0.04576735,0.03752152,0.04472044,0.05853007,0.04009687,0.06242643,0.05319754,0.05177764,0.07134266,0.05591462,0.05838086,0.06133741,0.07528623,0.05804009,0.07103993,0.06850226,0.06789348
-0.07258424,-0.09061202,-0.07409859,-0.06549016,-0.06080667,-0.07519920,-0.07429757,-0.04896814,-0.06407664,-0.07682591,-0.07313431,-0.10213955,-0.06442274,-0.09504883,-0.10346360,-0.10318279,-0.08717582,-0.10268505,-0.10324743,-0.08740490,-0.09603084,-0.08709579,-0.08153423,-0.07062527,-0.07309829,-0.05248727,-0.05057374,-0.04114121,-0.04180376,-0.03902307,-0.04845748,-0.05751747,-0.06602252,-0.07678965,-0.08721098,-0.07167598,-0.07259932,-0.06575718,-0.05973789,-0.05194796,-0.03442461,-0.03033158,-0.05122537,-0.05091306,-0.05197539,-0.05526903,-0.06403234,-0.07681552,-0.07818270,-0.07975147,-0.08711398,-0.08440476,-0.08705635,-0.08147015,-0.07951120,-0.08307175,-0.07718087,-0.08655763,-0.07727325,-0.10476263,-0.08896225,-0.09882393,-0.08277650,-0.08075064,-0.08675023,-0.09579094,-0.09078237,-0.10282491,-0.09046980,-0.09566650,-0.08215291,-0.07558027,-0.07723116,-0.07077439,-0.04465623,-0.05410450,-0.03879392,-0.04368381,-0.02461026,-0.03359530,-0.03922978,-0.03276774,-0.02832595,-0.01499101,0.00629674,0.03446497,0.03267949,0.06756697,0.10200258,0.11429149,0.13957078,0.17748265,0.19899370,0.22643816,0.27080287,0.29909157,0.34931925,0.36923121,0.36229225,0.37283995,0.35528087,0.29842251,0.29662223,0.25510274,0.21444941,0.16389922,0.10390685,0.07600197,0.02955547,0.00042650,0.00366557,-0.00750393,-0.01071492,-0.02524009,0.00182809,-0.00122816,-0.00193423,-0.01148936,-0.01660423,-0.03638840,-0.02984105,-0.04424041,-0.02906344,-0.02178959,-0.03632598,-0.03707830,-0.01174509,-0.01147837,0.00087835,0.00298440,0.03348214,0.05157556,0.07229797,0.09326598,0.10696320,0.10338859,0.11921704,0.11767625,0.13147618,0.09701208,0.12181893,0.11178252,0.09788779,0.08158627,0.07926442,0.04795656,0.03863094,0.03097663,0.02931049,0.03423391,0.04653175,0.06926481,0.06742892,0.09217661,0.11262836,0.11340519,0.09485208,0.09186414,0.08537047,0.05746710,0.02863058,-0.00664520,-0.01706079,-0.02431220,-0.03987329,-0.03511136,-0.05417129,-0.05460286,-0.04145126,-0.05474817,-0.04018450,-0.05899883,-0.04742720,-0.04300198,-0.06270611,-0.05169824,-0.03426421,-0.02602969,-0.03524732,-0.02538137,-0.01030922,0.00494117,-0.01120182,0.00766745,0.00577407,0.01623236,0.03660339,0.02691507,0.01462102,0.04152988,0.02737088,0.02048344,0.01832665,0.00942091,0.03156037,0.00974446,0.01144089,0.00739173,0.01492395,0.04341176,0.07112743,0.05964644,0.10254617,0.13873606,0.14979220,0.17624482,0.24041963,0.26360813,0.30786503,0.31024992,0.37474825,0.39667361,0.42040386,0.46154232,0.46435532,0.46454066,0.49489420,0.48602460,0.46024534,0.43884738,0.40820717,0.37867232,0.33932103,0.27671228,0.27450219,0.23001630,0.17649585,0.16137854,0.17549611,0.17050044,0.17247758,0.14750118,0.16094175,0.16091015,0.16995172,0.16277478,0.17062991,0.17682404,0.17786422,0.14489559,0.11241138,0.10531046,0.07398182,0.05129615,0.06396814,0.04778538,0.07072941,0.06019686,0.09217001,0.14199970,0.16195698,0.22424104,0.25288417,0.28519188,0.33235168,0.37257269,0.39880053,0.40217001,0.37729444,0.37980805,0.36775756,0.36777953,0.35180883,0.32524977,0.29479336,0.31030287,0.30157308,0.29466976,0.25761187,0.22746402,0.19449124,0.17827614,0.17260070,0.10310353,0.06894884,0.02411161,0.00626277,-0.00520615,-0.01140290,-0.00691716,-0.01570631,-0.03027417,-0.02395080,-0.03124887,-0.01598643,-0.02056668,-0.00865725,-0.00702933,-0.00601833,-0.01125168,-0.01627890,-0.01929587,-0.00321160,-0.01330669,-0.01845562,-0.00593549,-0.02141078,0.01137709,-0.00237773,-0.00458289,-0.00381830
0.02102251,0.00726461,0.02690817,0.03305844,0.02230060,0.02556344,0.05400687,0.02634921,0.03101901,0.02728879,0.00679369,0.00511498,0.00117562,-0.00425538,-0.00609330,-0.01778747,-0.02037293,-0.02390366,0.00429981,-0.01395397,-0.02215323,-0.02001948,-0.00205702,-0.00384452,0.01306981,0.02449898,0.04166497,0.03888382,0.05789434,0.05787339,0.03577448,0.02600851,0.02401049,0.02333019,0.00936327,0.01850752,0.00664657,0.01679585,0.01532128,0.02432317,0.02667625,0.03026318,0.03365295,0.04654457,0.03331557,0.04430557,0.01628311,0.03033313,0.03513796,0.02846410,0.01219070,0.00471838,-0.00381991,0.00916950,0.00681802,-0.00272184,-0.00157421,-0.00735413,0.00199714,0.01118759,0.00554925,0.00343144,0.01270696,0.02253843,0.02298138,0.01706243,0.01398509,0.00389983,0.01192232,-0.00378325,0.02526642,0.00399094,0.02477053,0.00834682,0.01399882,0.03081235,0.05377523,0.06726082,0.04909820,0.07044733,0.09086054,0.08648801,0.10327849,0.13221996,0.14576995,0.21416749,0.22515995,0.25585623,0.29456234,0.32043083,0.35704837,0.37509170,0.42335879,0.43165685,0.44252119,0.44940948,0.44703042,0.50090595,0.49725880,0.48926849,0.49140885,0.47500919,0.47906457,0.43479296,0.39096584,0.33677583,0.29577632,0.23737867,0.18226841,0.15554716,0.11487003,0.11769569,0.09007773,0.07884137,0.07304078,0.07034511,0.07263995,0.08964129,0.10194322,0.08026273,0.08682172,0.07516800,0.07525214,0.08278676,0.06549722,0.05746564,0.07801132,0.07472612,0.09573399,0.10395604,0.14462839,0.17231927,0.17358834,0.18806392,0.21929128,0.23093767,0.26826255,0.25208712,0.28069748,0.27016847,0.25999653,0.24627968,0.22904310,0.22562776,0.18816056,0.17088513,0.16467727,0.15969091,0.14353406,0.15888681,0.13216735,0.13366493,0.14853954,0.15944323,0.14791235,0.18212849,0.20785736,0.18353708,0.19464726,0.18566979,0.16239900,0.12974547,0.10553115,0.09650799,0.09411447,0.08095423,0.07779932,0.07299810,0.05707726,0.07225645,0.07119906,0.08372241,0.07309534,0.08838656,0.09981593,0.09930859,0.11536649,0.12028482,0.11783498,0.14721208,0.17466693,0.20729817,0.22144223,0.28180947,0.29585671,0.33989802,0.32721276,0.36705134,0.36342390,0.36405046,0.35809353,0.34830069,0.32139937,0.34376840,0.32062030,0.26624966,0.27590518,0.23135552,0.23342046,0.20481692,0.23573900,0.21709886,0.24830327,0.25203366,0.27274762,0.29170100,0.33519411,0.37788186,0.44428396,0.43062494,0.51138266,0.51511564,0.51942949,0.53318050,0.57083104,0.55462772,0.55813629,0.54746363,0.57082376,0.53282803,0.49528496,0.47977466,0.46966184,0.42056777,0.37902838,0.34062653,0.31824326,0.29885264,0.29380331,0.26973472,0.26484723,0.28845049,0.30427734,0.32367414,0.33677459,0.33254133,0.36554791,0.36963940,0.33696699,0.34893668,0.31777326,0.30223712,0.26049670,0.23171728,0.21638486,0.20259558,0.18492208,0.17191644,0.19023232,0.21437423,0.20702369,0.23828627,0.28372740,0.31051824,0.35243953,0.38513452,0.40692446,0.43797437,0.45490910,0.49581647,0.49221984,0.48991559,0.45178601,0.46830659,0.45205742,0.40975068,0.40351125,0.38481057,0.36342650,0.36650115,0.34581568,0.32583291,0.30371703,0.25673490,0.19999824,0.20445560,0.19162545,0.18394471,0.12559712,0.12679877,0.12933772,0.10885833,0.12923537,0.12906436,0.12688952,0.12811229,0.12959520,0.15159022,0.15367768,0.15657421,0.16647256,0.14062520,0.14926266,0.15541428,0.18942433,0.17384441,0.17178440,0.19443889,0.19546449,0.19185378,0.20489716
0.01180338,0.00138996,0.01636955,0.01067445,0.02231380,0.00449859,0.01150312,0.02943060,0.02123124,0.01256570,0.01638517,0.01261413,0.00989207,0.01266300,-0.00076798,0.02379364,0.00261202,0.02597869,0.00387775,-0.00544748,0.00126509,-0.00270278,0.00557253,0.02183599,0.01324146,0.02676879,0.03031651,0.04426496,0.03569052,0.03045537,0.03519126,0.03109216,0.03100175,0.02552827,0.03140162,0.02533532,0.03999164,0.03960184,0.05771821,0.04864427,0.07810879,0.06826557,0.08091302,0.08452802,0.06579431,0.07853059,0.06708854,0.04668996,0.04514618,0.03270485,0.04278358,0.03203875,0.04179197,0.03412293,0.02246446,0.01970070,0.03638978,0.02882006,0.02721990,0.02069374,0.04246431,0.03957123,0.02820205,0.02638467,0.02464809,0.04154970,0.03553569,0.02885209,0.02768046,0.03467073,0.04038050,0.03616428,0.04498248,0.05510911,0.05473536,0.07832106,0.06020340,0.10123352,0.08988838,0.11968748,0.13495848,0.11905496,0.14061481,0.15389619,0.19369424,0.23339267,0.24522229,0.27804253,0.32808853,0.34833742,0.38861854,0.40531679,0.40907697,0.41111667,0.38560174,0.36599994,0.37894987,0.35453410,0.32546621,0.33341653,0.29049305,0.27117615,0.25346461,0.23344283,0.19686655,0.16737059,0.16303647,0.12457244,0.13171875,0.11907222,0.11704426,0.12014357,0.12559732,0.13363551,0.16997422,0.15786374,0.14572735,0.14856387,0.16385022,0.14506025,0.13007340,0.11880606,0.11706221,0.09791665,0.09107100,0.08965562,0.06738464,0.09642617,0.09140138,0.10644718,0.10527564,0.11266317,0.10875537,0.12954632,0.14727174,0.15104003,0.16641112,0.17838049,0.17925889,0.16096513,0.17031579,0.17126199,0.17792704,0.19665190,0.19454885,0.19327502,0.16709874,0.16036949,0.15349411,0.13938259,0.13381355,0.14926645,0.11876907,0.13339662,0.14345674,0.13728274,0.15970872,0.13516574,0.14369810,0.13919095,0.12724785,0.12906521,0.12382024,0.09902119,0.10016850,0.09445245,0.08359220,0.08041541,0.09538677,0.08531979,0.08409667,0.09390311,0.09590566,0.11173625,0.09804197,0.09808856,0.11542249,0.12921172,0.14871906,0.15291846,0.18230231,0.21541377,0.20989955,0.24026216,0.23726867,0.29281181,0.27224991,0.28045192,0.29489134,0.29545665,0.28476015,0.28535634,0.28265325,0.26489341,0.24387349,0.23067436,0.21677644,0.18482808,0.17446851,0.19437984,0.18272052,0.16999649,0.17488578,0.19462547,0.19206437,0.20834046,0.21768206,0.23599237,0.23725551,0.28241553,0.28274479,0.29966453,0.31454744,0.37514176,0.38738834,0.41516874,0.42389153,0.45608445,0.44902188,0.46072963,0.43597078,0.43673112,0.43807839,0.36602243,0.38113697,0.32014882,0.33860581,0.29170333,0.26094659,0.23139929,0.26268673,0.23276997,0.23360357,0.24235502,0.21544990,0.22298076,0.22610184,0.20784067,0.20772196,0.20565590,0.19237689,0.19141344,0.19538638,0.18508965,0.20389472,0.16617820,0.18698290,0.19429293,0.21854808,0.21062706,0.24272987,0.26788689,0.30594251,0.34620958,0.36901125,0.36522593,0.40347220,0.39130665,0.39576579,0.37223268,0.38959960,0.40470912,0.33771934,0.33047849,0.33877769,0.33198446,0.30728902,0.30659053,0.29717467,0.27967273,0.28825160,0.26672406,0.23784837,0.24453503,0.20907188,0.18414038,0.18965757,0.16716690,0.15953342,0.16874846,0.17075846,0.14212149,0.15251870,0.15544500,0.16588240,0.17896623,0.17324664,0.16468428,0.19466799,0.17078497,0.19825515,0.19746087,0.18049129,0.20195646,0.18488283,0.17987966,0.21315911,0.19751227,0.20772914,0.20708322,0.21900576
0.02545861,0.03032189,0.03571569,0.03100493,0.02310580,0.04265819,0.03954673,0.04136054,0.03277597,0.01470935,0.02216858,0.01936308,0.02336560,0.00331049,0.00547797,0.00410159,-0.01212433,0.01929280,-0.00492772,-0.00321980,-0.00367736,0.01113982,0.01147882,0.00949693,0.01773474,0.02188981,0.04528038,0.05503251,0.05173167,0.03826945,0.04070144,0.03318532,0.02848734,0.04643823,0.04164436,0.04280650,0.06122321,0.11325065,0.12022171,0.14049019,0.16423843,0.16646499,0.16810219,0.18696331,0.14733552,0.16951988,0.10876769,0.08863344,0.07194262,0.03159131,0.04784420,0.03565553,0.01973137,0.01026331,0.01058736,0.00133482,-0.01308792,0.00772071,0.00807986,0.01366922,0.01332035,0.00152914,0.01169509,-0.00865841,0.01316867,0.00974741,0.01255777,0.01156608,0.00359305,0.02323145,0.02046925,0.02203166,0.03706613,0.04122487,0.07211608,0.11252219,0.12251071,0.13482478,0.16004376,0.13730553,0.14789005,0.14037625,0.10860151,0.12905348,0.12318883,0.14630538,0.16294256,0.18618062,0.19509004,0.22997356,0.23444105,0.24785535,0.24137557,0.24083585,0.23457935,0.24013006,0.24692939,0.21038436,0.24343713,0.24621467,0.24980443,0.24551432,0.23916366,0.20761835,0.19310456,0.16904560,0.14094182,0.12112859,0.10246989,0.07222211,0.05245565,0.05547244,0.04216718,0.06388104,0.06078859,0.05392186,0.06562329,0.04974938,0.06323984,0.05667401,0.04063628,0.03723355,0.02744342,0.03803013,0.03737217,0.03017514,0.02595750,0.04315367,0.06588477,0.07325342,0.08967569,0.12354217,0.11657911,0.16948732,0.17813079,0.22843538,0.23499369,0.26722038,0.29442230,0.30415857,0.30494342,0.30921153,0.36250049,0.32848664,0.30166061,0.29739188,0.28688631,0.25917669,0.21779031,0.18128457,0.15280447,0.14474671,0.08425798,0.07988537,0.06735832,0.04957814,0.03601490,0.03600925,0.02300919,0.01277683,0.02166012,0.01635535,0.00001882,0.00871186,0.00997042,0.01809472,-0.00037845,-0.00409574,0.00574211,-0.00104356,-0.00407047,0.01303534,0.00449377,0.00859832,0.01996607,0.03161475,0.02752157,0.04962821,0.04493270,0.06082143,0.07784087,0.08894661,0.10449819,0.11737091,0.13988302,0.14762144,0.17427856,0.16463754,0.15992591,0.16069240,0.17411037,0.16083505,0.15310497,0.11513414,0.12567032,0.08735557,0.07807254,0.10533979,0.08336052,0.07444031,0.08243068,0.09238394,0.11939990,0.14174511,0.15442349,0.17985054,0.19311479,0.21191084,0.24722367,0.27485194,0.26347294,0.26956922,0.28674545,0.27514278,0.25966599,0.26577560,0.22932664,0.23955016,0.22961709,0.21500064,0.16981946,0.17517572,0.16043264,0.15012941,0.11326383,0.10821624,0.10330418,0.10669683,0.09356317,0.12726486,0.12655567,0.16525539,0.15437154,0.15063744,0.18847694,0.19016223,0.17097331,0.17295217,0.15976559,0.16193262,0.13957149,0.13529272,0.09073154,0.07463399,0.06767677,0.03484717,0.04806876,0.03660941,0.05811368,0.06205849,0.07548384,0.08289449,0.10620385,0.14388105,0.17270237,0.19852748,0.22637505,0.26476505,0.30368023,0.31369700,0.34000015,0.36137297,0.37421779,0.36707583,0.32066835,0.32727775,0.30524198,0.27233957,0.26392875,0.24107461,0.22696593,0.18202311,0.16740318,0.12657410,0.10998047,0.07920680,0.03558627,0.02105185,0.00012523,-0.01162642,-0.00244283,-0.00845882,-0.01461228,-0.00026117,-0.01838461,-0.00626609,-0.00905438,-0.01110991,0.01506113,-0.00620674,-0.00077103,0.00020783,0.00370414,0.01879654,0.01334709,0.01613712,0.02028793,0.01758861,0.01549462,0.01590629,0.02478129
0.07867709,0.05367586,0.04781237,0.05193411,0.04417703,0.06694945,0.06092859,0.05831913,0.06458185,0.04641209,0.03975150,0.05408691,0.05375975,0.04379302,0.05646169,0.06532905,0.04847011,0.05574333,0.05802595,0.06036353,0.06639656,0.06410672,0.07327348,0.05587976,0.06152720,0.07585898,0.06681046,0.06740868,0.07290999,0.07663092,0.06864929,0.07846844,0.08619091,0.05864743,0.05634939,0.08754009,0.07729292,0.10278847,0.12072161,0.09648087,0.09734749,0.10283439,0.10606017,0.10204699,0.09191766,0.10180827,0.07603208,0.09613767,0.09124676,0.10099080,0.08940612,0.09205729,0.07881299,0.08966297,0.09591101,0.09896289,0.09138494,0.10602821,0.10407986,0.08694916,0.07083561,0.08471685,0.09673375,0.09864774,0.09544693,0.09537481,0.10674325,0.09630031,0.08314292,0.10243540,0.11778142,0.10328564,0.12255221,0.12830149,0.13040220,0.14414782,0.14152378,0.16417393,0.19457061,0.19640871,0.20873833,0.26915631,0.27332411,0.35721132,0.38848547,0.45131492,0.50339606,0.55114272,0.61611234,0.63505029,0.65021473,0.68339268,0.65743993,0.68344035,0.64112550,0.65204553,0.63472675,0.59626473,0.54047991,0.45382143,0.43857027,0.41309416,0.33898335,0.31025380,0.25804048,0.25436850,0.19098391,0.19576294,0.19218980,0.20386968,0.20608821,0.21859989,0.20298263,0.26336294,0.25046789,0.24359082,0.26464514,0.22760605,0.23280334,0.22616208,0.20925318,0.19047059,0.17626983,0.15879316,0.16795594,0.14863719,0.17279541,0.17216772,0.16606739,0.14940668,0.18087754,0.18568909,0.17228485,0.18453235,0.19558133,0.20634997,0.19882214,0.19755163,0.20425754,0.20176337,0.23440599,0.23630543,0.19317870,0.21150100,0.23305741,0.23147591,0.23974299,0.23673512,0.23695860,0.24949203,0.28188254,0.29363906,0.29095985,0.33430947,0.32257856,0.36067180,0.34714804,0.32435126,0.30627199,0.25591332,0.24567361,0.22325724,0.21441534,0.19928509,0.19619701,0.19278610,0.17391955,0.17605612,0.20347348,0.18520688,0.19722831,0.21427731,0.21013379,0.24951467,0.22829212,0.24921162,0.25319489,0.31349343,0.32679164,0.37209154,0.40512444,0.46822333,0.47519904,0.49177985,0.51747776,0.55770386,0.52604788,0.55265326,0.53069216,0.52674967,0.54057886,0.48117625,0.45825259,0.44512368,0.37946874,0.37246606,0.32809464,0.32353920,0.29722093,0.30234149,0.28110087,0.28536118,0.30005693,0.28954087,0.32075371,0.33214376,0.35989424,0.36825701,0.41714107,0.45734036,0.51164828,0.56579389,0.61232398,0.65167646,0.67122108,0.70452757,0.74497006,0.72358827,0.73641030,0.72547592,0.70905214,0.67446115,0.60098037,0.58497258,0.49598180,0.47020234,0.45092622,0.39623098,0.37499743,0.37709342,0.32219790,0.30820730,0.27400917,0.29671453,0.30444510,0.28493293,0.27966247,0.31121225,0.27451520,0.27267242,0.27184106,0.26048244,0.28754779,0.30427086,0.31756180,0.33652063,0.34443247,0.38311856,0.47157410,0.45731121,0.50039865,0.56567827,0.57845505,0.61056249,0.62194351,0.62978944,0.63719442,0.63432803,0.59892426,0.58308000,0.54053822,0.48709923,0.50747043,0.48936012,0.52129670,0.52743743,0.50786337,0.50675144,0.50198670,0.48603790,0.42735977,0.41852262,0.36671333,0.35639167,0.28743829,0.29885109,0.29702323,0.27020032,0.25171060,0.26769301,0.28103593,0.29305832,0.29960754,0.29686892,0.28372221,0.29504315,0.32203088,0.33425915,0.33086743,0.36179099,0.33536420,0.34998829,0.35928177,0.35950645,0.34962202,0.35364666,0.37637440,0.38436871,0.40503219,0.38190175,0.34335186
0.02380895,0.05107026,0.05283928,0.06894190,0.06834318,0.07367181,0.06903804,0.07036990,0.06723515,0.04661163,0.03467384,0.03679031,0.02412936,0.02471925,0.00913206,0.02141643,0.02577051,0.00080920,0.00549830,0.01049654,0.02260067,0.02044433,0.01161714,0.01300678,0.04704501,0.06204081,0.07184886,0.06070887,0.05615605,0.07331904,0.07802936,0.06222545,0.05879985,0.03367454,0.05136369,0.05938275,0.04294513,0.03333448,0.08360623,0.08055431,0.07694608,0.08207200,0.08610650,0.09967360,0.09666928,0.08532392,0.07799320,0.05204765,0.03865736,0.05337921,0.02975609,0.03733591,0.01634232,0.02469741,0.03624803,0.02483598,0.03424263,0.01316022,0.02749937,0.02915237,0.02803985,0.02967781,0.02348918,0.03769300,0.01555553,0.02283087,0.01857275,0.04431515,0.02463291,0.02969537,0.03150778,0.02978452,0.03967100,0.04157303,0.04825121,0.07264188,0.05790350,0.08443848,0.09826642,0.10376334,0.10093218,0.09748703,0.11326793,0.12604851,0.13504188,0.15829203,0.17343199,0.20200038,0.23578877,0.24100808,0.27732402,0.29783295,0.30995920,0.32309246,0.34266526,0.34319836,0.35773269,0.37093106,0.40719877,0.39680398,0.40270243,0.40865233,0.39256720,0.36911466,0.34589460,0.31100424,0.28013466,0.22896733,0.17548677,0.15348211,0.13957977,0.15063930,0.13558088,0.12431735,0.16235527,0.14313574,0.14178133,0.14349280,0.14681266,0.14493378,0.12199745,0.11500912,0.11488092,0.09318916,0.10749414,0.08697647,0.10359770,0.08732780,0.12281316,0.12582202,0.15230984,0.15900292,0.20180772,0.24110117,0.25207068,0.26209192,0.27614259,0.32693096,0.30624475,0.29734802,0.29885323,0.30184012,0.28470448,0.27346780,0.26186021,0.23047285,0.20626508,0.18055349,0.18024071,0.15902798,0.14310085,0.11379690,0.12696782,0.12326522,0.12056841,0.11604626,0.11420293,0.10790335,0.10724642,0.09420743,0.08083956,0.10694602,0.08238449,0.07621269,0.07227577,0.06028689,0.05953365,0.05712501,0.05632822,0.06898499,0.05952719,0.06001242,0.06258261,0.06680586,0.06504932,0.05628710,0.07231734,0.08447038,0.08240002,0.08249850,0.09029456,0.12526709,0.12086194,0.14970312,0.12177555,0.13924670,0.15111760,0.15143070,0.15603869,0.17165069,0.17156383,0.15812262,0.14424945,0.12964675,0.15597441,0.14686466,0.12697556,0.14409363,0.14168687,0.16843736,0.16908976,0.18808150,0.23203845,0.23812535,0.28510278,0.29936809,0.35047599,0.38355556,0.39560940,0.44007198,0.47004762,0.50291954,0.50120621,0.53398441,0.53076785,0.56089105,0.56429397,0.54970593,0.49981947,0.53200442,0.49127992,0.45584880,0.44817397,0.40358785,0.39932148,0.33886814,0.33426398,0.30795839,0.28776941,0.29364479,0.28305810,0.27664415,0.32382725,0.29987224,0.33832954,0.33071355,0.36074924,0.34893632,0.33867168,0.34367205,0.29684666,0.26982202,0.25286477,0.22315913,0.19638382,0.19977351,0.19761079,0.18735395,0.21142516,0.21807459,0.21776587,0.26963951,0.29009074,0.33952315,0.34603504,0.38597308,0.43405534,0.44165045,0.46289645,0.46520252,0.48974491,0.46620621,0.43592476,0.42714356,0.40025285,0.36707431,0.34199117,0.32372018,0.35011574,0.27897632,0.25590814,0.25647495,0.23506760,0.20935654,0.16492486,0.18442048,0.15829640,0.11001660,0.11816948,0.10234454,0.10542963,0.09664143,0.09630560,0.10101593,0.09788289,0.13080517,0.11384644,0.10261867,0.11275423,0.12193417,0.09701533,0.10973515,0.12314843,0.12178799,0.13183734,0.10771688,0.10744803,0.12848649,0.11460126,0.13077090,0.13500615
-0.04379124,-0.04068888,-0.04808959,-0.03776273,-0.04808991,-0.04231970,-0.04674922,-0.05665024,-0.04566862,-0.04209421,-0.04813765,-0.04692166,-0.06045946,-0.04851443,-0.05670083,-0.04474654,-0.04967471,-0.05860428,-0.05513119,-0.05102015,-0.04855121,-0.05047993,-0.04355399,-0.04586138,-0.03080349,-0.03155292,-0.01902494,-0.02615039,-0.02869947,-0.02523478,-0.04025409,-0.03659956,-0.03098945,-0.02692230,-0.01119888,0.00298456,0.00816287,0.03104952,0.05495666,0.06751974,0.06731269,0.09551509,0.07016251,0.07784730,0.04818070,0.03981695,0.01486074,0.00139535,-0.01554502,-0.01865783,-0.03398073,-0.02831015,-0.02389831,-0.02193059,-0.03188564,-0.04721862,-0.03076191,-0.02760279,-0.03529874,-0.03512536,-0.02979701,-0.02998167,-0.01852790,-0.02632809,-0.02639096,-0.01663697,-0.02082860,-0.01524818,-0.01530084,-0.02231697,-0.00912671,-0.00900780,0.01567024,0.02171801,0.02182005,0.05150028,0.06612749,0.07963019,0.08798621,0.07734816,0.07343013,0.06960054,0.06338731,0.09390913,0.10516302,0.14291280,0.17613659,0.19141553,0.24039272,0.24768001,0.25731597,0.27307845,0.30306202,0.28623445,0.30849754,0.26717725,0.26276345,0.24096054,0.23901159,0.21489009,0.17507222,0.13950947,0.13035912,0.11697602,0.09188019,0.06204001,0.05457594,0.03404446,0.02740947,0.03809295,0.04570095,0.04813581,0.06860147,0.05964451,0.08264176,0.07642843,0.08950103,0.07571090,0.07587660,0.04995949,0.04752096,0.02010053,0.01094187,0.02106621,0.00464368,0.01169354,0.02058299,0.01581595,0.01590507,0.01663053,0.03769463,0.04104209,0.04950029,0.05325771,0.07272472,0.09184446,0.13318397,0.11739119,0.12006465,0.16821335,0.18009952,0.19036483,0.18682345,0.21768280,0.20080121,0.18339819,0.17012493,0.17104872,0.13571448,0.11790237,0.11741419,0.09592085,0.12015447,0.10722452,0.11380322,0.10954625,0.07827475,0.07281545,0.08579053,0.05682037,0.03548988,0.02097956,0.01605654,0.00775416,-0.00343211,0.01210441,-0.00074614,-0.00597391,0.00253607,0.02254019,-0.00138457,0.01035766,0.02429067,0.00903697,0.00620263,0.01437258,0.02374887,0.04852421,0.05172978,0.04877857,0.06054474,0.08489986,0.06883397,0.08908156,0.10851395,0.09664192,0.09905269,0.11568962,0.11785600,0.12125722,0.11651377,0.08534264,0.09667723,0.10248124,0.07883521,0.05553211,0.07465254,0.05427902,0.04711415,0.05119844,0.06563135,0.06606844,0.07852861,0.08640503,0.09979251,0.11106635,0.11243254,0.13101940,0.16453981,0.19263707,0.23110243,0.25672238,0.26575326,0.30259631,0.32740883,0.34133465,0.37392206,0.37038289,0.37816885,0.37853269,0.35471088,0.31764753,0.31171372,0.26902604,0.25189425,0.22102294,0.19534824,0.17221986,0.14786681,0.12372524,0.13104171,0.11323036,0.10009830,0.08848607,0.10233270,0.10586071,0.08403398,0.06071565,0.06425523,0.07199036,0.06382577,0.08546482,0.07058663,0.06827932,0.05457617,0.07183034,0.11140534,0.12990248,0.14764026,0.19400028,0.23577402,0.26615510,0.27332119,0.30203841,0.32849449,0.32789422,0.33928219,0.39609125,0.35492026,0.36078677,0.36452584,0.33816931,0.35543835,0.34443599,0.31892123,0.32491899,0.29120293,0.29842280,0.29136350,0.27159816,0.25441613,0.20964886,0.18979027,0.15234491,0.11319230,0.08050997,0.07361769,0.05978745,0.04379339,0.05588842,0.03712156,0.03876305,0.05818610,0.03973522,0.04660508,0.04008547,0.05142809,0.04614670,0.04465580,0.04068851,0.06375476,0.06118510,0.04723791,0.06432414,0.07155276,0.05070346,0.07001502,0.06830579,0.07249468,0.08028747,0.07817515
0.06214272,0.05257612,0.05141082,0.06140492,0.05475951,0.04776846,0.05127681,0.05747908,0.04379593,0.04189211,0.04712230,0.04429164,0.05259632,0.05276596,0.03165087,0.03542197,0.05484982,0.03802497,0.02800830,0.01956453,0.03940975,0.03357336,0.03889972,0.02824618,0.03679142,0.04043110,0.04103255,0.05605169,0.03564709,0.04290770,0.05291618,0.04333607,0.07415551,0.06363845,0.06945151,0.09250105,0.10489920,0.11714495,0.13766911,0.16167416,0.15374645,0.19535774,0.19890516,0.18654197,0.16933886,0.16215212,0.13543947,0.11393777,0.10142767,0.07720675,0.07333671,0.07715014,0.06011605,0.04782794,0.03835736,0.04555473,0.04835186,0.03159886,0.04710482,0.03955706,0.04383614,0.03640830,0.03495823,0.04408496,0.03369460,0.03681032,0.04215638,0.03667296,0.03841097,0.05440489,0.05996974,0.04003206,0.06033163,0.07634228,0.09785916,0.12317225,0.14743311,0.17688098,0.18977460,0.20231710,0.20341909,0.20468638,0.20599550,0.21211541,0.23071750,0.28472983,0.32017999,0.37296495,0.41297272,0.43129575,0.47103992,0.48886639,0.45257489,0.48609333,0.48637057,0.48638342,0.46844068,0.43610657,0.39106085,0.35591666,0.34110931,0.28021960,0.26648135,0.23478866,0.17554446,0.18415019,0.15155164,0.11681834,0.09379552,0.08829428,0.08448657,0.09077416,0.10226967,0.11134170,0.09164165,0.08617015,0.10168865,0.11135864,0.10199674,0.10396638,0.08592431,0.07379888,0.07336002,0.05118081,0.05096182,0.05753500,0.05225331,0.05634779,0.05034203,0.07153579,0.07274066,0.09046544,0.09475203,0.08295011,0.11967489,0.14679783,0.16684804,0.18140396,0.19998608,0.23245611,0.25538053,0.28156114,0.29143107,0.31078936,0.33240917,0.33121535,0.28312801,0.26361191,0.26551355,0.22825249,0.20730987,0.18311606,0.18626693,0.20069277,0.18390287,0.18606291,0.19748058,0.18459054,0.17130808,0.13701655,0.12071636,0.10037083,0.08253817,0.06937681,0.08079095,0.05040768,0.04453453,0.05411227,0.05810757,0.06774464,0.04687671,0.04894274,0.07379903,0.08254038,0.08385964,0.10188125,0.12525434,0.15089266,0.15760432,0.19779229,0.21283678,0.23034202,0.25415084,0.28230281,0.29876340,0.35005900,0.38466335,0.40003533,0.38574680,0.40079936,0.36900833,0.38254309,0.35036779,0.31088681,0.29480688,0.27021777,0.21804536,0.20356654,0.19294096,0.16560620,0.13805802,0.13420243,0.12465134,0.14509979,0.13764985,0.15243388,0.16734992,0.17030602,0.19718091,0.21569211,0.24860248,0.27730311,0.30469901,0.32719541,0.36861052,0.39574153,0.40152606,0.39576967,0.42702886,0.41968962,0.41421930,0.38378151,0.37444411,0.32344992,0.31105705,0.28677593,0.23711376,0.20835348,0.16386468,0.17984429,0.13625501,0.14384978,0.14305932,0.13316813,0.12167135,0.13619819,0.13719957,0.12822266,0.11209180,0.10042734,0.09776295,0.10061370,0.10246745,0.09796446,0.09354448,0.11541505,0.13666027,0.13456397,0.14129430,0.19533670,0.19898216,0.21552191,0.26682099,0.31265825,0.33968407,0.38569418,0.40640542,0.44714078,0.44344683,0.49318810,0.47473416,0.48401822,0.48112679,0.45977222,0.45018911,0.44494643,0.44283945,0.42922170,0.43775874,0.40663013,0.37225916,0.36079716,0.31821804,0.27502019,0.22683716,0.20249538,0.17116483,0.14333060,0.13156367,0.09429578,0.10778074,0.10644950,0.11460217,0.10643416,0.10342638,0.10355217,0.11504595,0.12507364,0.12590537,0.14027978,0.13234374,0.14631727,0.15131780,0.15518172,0.17562460,0.17051609,0.17740824,0.16853015,0.17098256,0.18834432,0.17346565
-0.03735034,-0.01917707,-0.02396856,-0.02197546,-0.00504125,-0.02283778,-0.03089410,-0.03699216,-0.02758387,-0.02863334,-0.01597609,-0.01354296,-0.02295702,-0.03030542,-0.01959452,-0.02450421,-0.02932433,-0.02270141,-0.02948928,-0.01775703,-0.04047655,-0.01405304,-0.02395424,-0.01372023,-0.01845258,-0.00493761,-0.02406107,-0.01561628,-0.00503592,-0.02803642,-0.00516752,-0.00814744,0.00129186,-0.01005020,0.00474120,0.01197817,0.03660941,0.04787089,0.07397997,0.09163893,0.10704292,0.11406923,0.14085173,0.12251999,0.09604517,0.09184988,0.06840867,0.04671733,0.03135215,0.01944351,0.00378209,0.00402051,-0.02265750,-0.00268059,-0.00486322,-0.00677074,-0.02171743,-0.02278983,-0.00604708,-0.00258911,-0.02081243,-0.00914827,-0.00086171,-0.00728331,-0.01118635,-0.01081314,-0.00499697,0.00208212,-0.00331285,-0.00020047,0.00785020,0.01438293,0.01622632,0.02959046,0.06298462,0.07092611,0.10869143,0.10491002,0.12383026,0.11405909,0.11310985,0.10001088,0.13076363,0.11821565,0.12919854,0.14634074,0.17172589,0.21146786,0.22786851,0.26631399,0.30454196,0.36463003,0.40011674,0.42503900,0.46544331,0.49373833,0.50362368,0.50601191,0.49038444,0.46171943,0.41605053,0.37901179,0.30925267,0.23718297,0.21501805,0.16323457,0.13313206,0.10149303,0.08561815,0.08897997,0.08978816,0.10126925,0.09483750,0.13345953,0.12807651,0.11938077,0.11986883,0.12702549,0.11282512,0.10624405,0.11324928,0.07958441,0.05795480,0.04992278,0.02943316,0.05219709,0.02947970,0.04113098,0.04613141,0.02612822,0.05436102,0.06900271,0.08674199,0.07968187,0.11836599,0.12124477,0.15855694,0.17518969,0.18401486,0.22288211,0.23542451,0.24467762,0.26177862,0.27214264,0.24296663,0.24199834,0.24848297,0.22880922,0.21459548,0.21682153,0.23361444,0.23412973,0.25322248,0.29405553,0.29091512,0.30106119,0.28029912,0.27543921,0.23393007,0.20313518,0.16978564,0.13645138,0.10325014,0.08980659,0.07639904,0.04147366,0.04207574,0.04756768,0.03335490,0.04941254,0.03850065,0.04550909,0.06219595,0.05447646,0.05003140,0.06320556,0.06111058,0.06245072,0.06075903,0.08223543,0.06954826,0.07848780,0.08605841,0.09055965,0.10222876,0.10070293,0.09774747,0.12694524,0.10989170,0.11227121,0.11191204,0.10816644,0.08721503,0.09928224,0.09845168,0.08687525,0.11187384,0.09526368,0.09699961,0.10162770,0.12780075,0.11719831,0.14110776,0.13759204,0.17594737,0.15901084,0.21305267,0.26215618,0.30122511,0.33794973,0.37363943,0.44456193,0.48757545,0.56914376,0.62785307,0.68347312,0.71663402,0.69799858,0.73483992,0.69900000,0.67688442,0.65551201,0.61522280,0.54950762,0.49439658,0.45382906,0.40719276,0.33167428,0.27191641,0.25659731,0.22795203,0.20097377,0.18502372,0.18213596,0.18583701,0.15716043,0.16560093,0.15820130,0.15737685,0.14883061,0.13519049,0.14302316,0.13161528,0.15753190,0.15941990,0.19046349,0.20950004,0.25792426,0.29380487,0.32890931,0.40961829,0.45177432,0.50538702,0.57537743,0.60515559,0.65785562,0.66290906,0.69234177,0.68372472,0.66140129,0.64925721,0.63286475,0.61005216,0.59790903,0.63009125,0.61894368,0.59812979,0.59522864,0.61130757,0.57749126,0.52789995,0.48220991,0.39151107,0.33385576,0.28384383,0.24481559,0.20702890,0.15678746,0.17613609,0.13591240,0.14840934,0.10929785,0.12458034,0.12248490,0.12361659,0.14823888,0.13062648,0.13969645,0.13968272,0.13221983,0.13122674,0.16062016,0.13387708,0.11765963,0.15301293,0.14545716,0.13320285,0.15837900,0.15901544,0.16921299,0.15258816
-0.01559793,-0.01055618,-0.01055731,-0.01291670,-0.01488382,0.00164849,0.00433112,0.00452206,-0.01305741,-0.00539820,-0.01317809,0.00503981,-0.00366833,-0.01920099,-0.02050136,-0.01470675,-0.00370971,-0.01654626,-0.00628550,-0.02079634,-0.01337438,-0.02053508,-0.01636645,0.01154993,0.00006902,0.00947295,0.00615353,0.02482694,0.00933927,0.00241279,0.00741457,0.02001080,0.01829501,0.01916749,0.02085544,0.03258684,0.05811085,0.05579564,0.08564592,0.09483981,0.11816927,0.12629577,0.13702504,0.11983172,0.11970913,0.11272541,0.07938828,0.06917622,0.03347064,0.03039744,0.01956484,0.02314135,-0.00666923,0.01586325,0.02056285,0.00587132,0.00781626,-0.00145436,0.00138303,0.00984099,0.00894749,0.01696391,-0.00200685,0.01324240,0.02385389,-0.00369067,0.00560855,0.00072761,0.01788212,0.02132995,0.03578462,0.02109228,0.03040887,0.04811214,0.06506722,0.08029300,0.10010324,0.13918804,0.12184627,0.14622825,0.12278288,0.11800482,0.09690783,0.12032123,0.12026252,0.13458144,0.13019507,0.17282784,0.17754006,0.22423378,0.28111896,0.27277781,0.34765964,0.38565258,0.42829085,0.42134034,0.45279983,0.45308602,0.45620571,0.45076289,0.43412455,0.41659504,0.33868730,0.29879193,0.25996694,0.20767731,0.13801173,0.11800136,0.11022582,0.08726335,0.08645174,0.10273431,0.08108855,0.06941132,0.09531551,0.09597763,0.07841656,0.08192689,0.08718473,0.09928560,0.06312724,0.06532751,0.05517911,0.04259217,0.05175027,0.06744651,0.06038688,0.05950250,0.06169167,0.08250669,0.07626325,0.10795274,0.09974011,0.11412930,0.14266611,0.15900208,0.17660369,0.21127155,0.21893118,0.24271527,0.24557856,0.27049075,0.27094975,0.26010956,0.25920269,0.29737741,0.28775062,0.23259473,0.22180679,0.25384131,0.25293873,0.24827772,0.27164169,0.27150025,0.28858654,0.30481494,0.29816096,0.29259835,0.25083002,0.20777471,0.19374836,0.16147142,0.12433487,0.10925541,0.10014696,0.08699057,0.08643326,0.07921163,0.05707027,0.07953422,0.05871178,0.05587978,0.05697759,0.07091205,0.09505003,0.07806667,0.08246739,0.08666142,0.09996518,0.10226138,0.11493805,0.11836514,0.12857217,0.13945208,0.15546638,0.16553192,0.16787726,0.15625539,0.16338769,0.16884768,0.16175249,0.15135635,0.15407712,0.15351724,0.13479043,0.12519109,0.13751984,0.12171924,0.11592597,0.12027642,0.12967974,0.13020131,0.15403609,0.17019654,0.17728251,0.21347640,0.23297302,0.27235798,0.31072294,0.32875907,0.39953312,0.42361224,0.46005918,0.51328225,0.54252501,0.61676815,0.60617930,0.63710655,0.63928363,0.65444960,0.60460332,0.56861570,0.55080418,0.46447763,0.42575072,0.37814245,0.31086346,0.30007100,0.27366911,0.22775833,0.20922081,0.18815597,0.18074037,0.17670692,0.19088930,0.18387364,0.17336069,0.19081002,0.17614289,0.15419035,0.16590455,0.15020308,0.16870676,0.14015808,0.15385419,0.16030673,0.17359267,0.20470473,0.22413119,0.25875354,0.34181442,0.39226261,0.42719955,0.48675438,0.53182749,0.57090903,0.59676782,0.63132729,0.63170689,0.60579507,0.60522312,0.60799707,0.60223579,0.58232888,0.56238579,0.57887586,0.60752721,0.57313274,0.59158844,0.55325854,0.47491220,0.46719756,0.37921370,0.35213725,0.29508132,0.24208978,0.20321174,0.17764394,0.14040375,0.16517305,0.12209976,0.10943216,0.10124391,0.12670404,0.12906290,0.11426285,0.14309187,0.11225316,0.13279268,0.14255800,0.10624622,0.14021037,0.13492438,0.13836052,0.14225994,0.14781160,0.13098073,0.13599248,0.16378852,0.14908791,0.14622299
-0.03840830,-0.02972167,-0.03404376,-0.03520526,-0.04369826,-0.02591587,-0.03651291,-0.02921593,-0.04162074,-0.04378637,-0.04223621,-0.02879843,-0.05151142,-0.05637394,-0.03306454,-0.04946714,-0.03974459,-0.04004579,-0.04278999,-0.04724214,-0.05278270,-0.04031218,-0.04767269,-0.01900701,-0.03763456,-0.02593841,-0.02436006,-0.02046606,-0.01560819,-0.01439821,-0.02131446,-0.01067079,-0.01601133,-0.00395310,0.00738790,0.00650661,0.03476285,0.03692259,0.08363012,0.11000523,0.12593661,0.11694321,0.13112353,0.12408075,0.12077695,0.08056688,0.07829784,0.05513148,0.04583638,0.00778341,0.01337337,-0.00305838,-0.00442980,-0.00164179,-0.02636036,-0.02020454,-0.01748046,-0.02440030,-0.01300440,-0.02261485,-0.02318817,-0.02660409,-0.02710612,-0.01370223,-0.01350065,0.00233047,-0.02081432,-0.00692061,-0.01177530,-0.01657601,0.00207082,-0.00283879,0.01203575,0.03317254,0.06555930,0.08845722,0.10309374,0.13173701,0.13037563,0.15125047,0.13599477,0.14176352,0.12971679,0.13081311,0.14857802,0.14186477,0.20393857,0.24834938,0.25906612,0.29488092,0.36069159,0.36786690,0.42138275,0.43015758,0.45551178,0.45975441,0.47727851,0.47311309,0.43741794,0.43617252,0.40213750,0.36052719,0.31761480,0.28063547,0.20523092,0.17186955,0.13582220,0.10928045,0.09991344,0.06787227,0.08239295,0.07928661,0.08377313,0.08268578,0.09480276,0.12467984,0.10755824,0.10018920,0.09424433,0.09671829,0.07506346,0.06077418,0.05216646,0.04725027,0.03440822,0.04034219,0.04966741,0.03346967,0.06366474,0.04444157,0.06271961,0.07219754,0.07930887,0.11158950,0.09971616,0.13317896,0.17209912,0.19586745,0.21897500,0.24080748,0.26129874,0.25792265,0.30110534,0.28950087,0.29464293,0.31975614,0.31125634,0.27284086,0.26305283,0.24941290,0.24956932,0.24084291,0.25916889,0.27741267,0.26853731,0.29269719,0.30579301,0.24690986,0.24611912,0.19760717,0.17552986,0.11414923,0.11696093,0.10308485,0.08065109,0.05986446,0.07546844,0.06069345,0.06177676,0.06186693,0.06390856,0.06504013,0.06803574,0.07609921,0.07656167,0.07374750,0.09320140,0.10049147,0.09237989,0.11267139,0.13026076,0.15226865,0.16290582,0.18665924,0.20795658,0.23282740,0.21475799,0.24703772,0.23270233,0.23892160,0.19925770,0.22363274,0.21480887,0.19458455,0.18868279,0.16970023,0.15518380,0.15148966,0.13199586,0.12894891,0.13656293,0.12444620,0.13653897,0.16189789,0.17478849,0.18044941,0.22951296,0.24035808,0.28476370,0.30386368,0.36091385,0.40214987,0.45712469,0.50263203,0.56268274,0.58165639,0.61983089,0.67335284,0.63396991,0.64148297,0.61754288,0.57371308,0.55286381,0.50956938,0.46969418,0.39411757,0.35844344,0.31974673,0.27780458,0.26838046,0.23660516,0.20781107,0.18361630,0.17973800,0.18973559,0.17435471,0.18752363,0.18699006,0.17460760,0.16806421,0.14921801,0.15521036,0.14485611,0.18511904,0.16232246,0.18013774,0.18798113,0.18983596,0.25778126,0.28740907,0.35079114,0.40491884,0.42056253,0.47502518,0.55321064,0.57676416,0.64658017,0.65635494,0.64017549,0.64863769,0.63216232,0.66316579,0.61199259,0.61513871,0.64491972,0.63475345,0.60464568,0.58020275,0.62791189,0.56678522,0.55810272,0.54067609,0.45524044,0.39480871,0.31823780,0.26825308,0.20418683,0.21417387,0.17645807,0.15076535,0.14913272,0.15168595,0.14307241,0.13694043,0.11961127,0.14064019,0.13736682,0.16811807,0.14442319,0.15591556,0.17130220,0.16399119,0.16587268,0.16691930,0.15151807,0.18506721,0.18748452,0.18754350,0.18276863,0.18830025,0.17288524
-0.09172358,-0.07797272,-0.09783726,-0.07530559,-0.08416584,-0.08374766,-0.06251499,-0.08594816,-0.06560772,-0.06724314,-0.07368798,-0.10249758,-0.08926198,-0.09604423,-0.10747618,-0.08950929,-0.09814254,-0.11118804,-0.09280697,-0.11254677,-0.09535965,-0.09741372,-0.07771340,-0.07226561,-0.07203144,-0.06659531,-0.07033400,-0.05250419,-0.03934385,-0.05201978,-0.04756179,-0.04464220,-0.05477748,-0.06408077,-0.03121407,-0.01774913,0.02343130,0.06012428,0.09244124,0.15409044,0.17373904,0.19818022,0.21915046,0.20318686,0.18804124,0.15617180,0.12126332,0.07192642,0.05107508,0.01296168,-0.02557052,-0.04456368,-0.05248964,-0.05797914,-0.06689057,-0.07232668,-0.06843891,-0.06879272,-0.05526633,-0.06869099,-0.05498046,-0.04820151,-0.08872545,-0.06809668,-0.06053774,-0.06522666,-0.06505666,-0.07266750,-0.04929423,-0.06216208,-0.03540638,-0.03323922,-0.01659366,0.00449005,0.05084040,0.10808894,0.14030589,0.15604899,0.20027774,0.18414632,0.17625558,0.15280730,0.13617524,0.12401356,0.11545200,0.14574060,0.16154515,0.17345616,0.22482783,0.24307580,0.26518707,0.28658429,0.31369541,0.29497663,0.30232263,0.30631379,0.27615044,0.27158799,0.27912903,0.25916301,0.26247260,0.24957894,0.23512957,0.22847913,0.18313270,0.15727652,0.13893284,0.08850262,0.08310507,0.06590178,0.05393704,0.06221671,0.06962354,0.07146874,0.07733863,0.09480615,0.10715857,0.08411654,0.08353692,0.07638161,0.04484609,0.04170013,0.04476678,0.01121700,0.03289863,0.02670241,0.03502389,0.04731759,0.05202558,0.07950624,0.08140175,0.09538948,0.15437295,0.18686733,0.19942549,0.25488145,0.26450144,0.32306234,0.37884283,0.41021715,0.45275331,0.50183850,0.50260053,0.52311204,0.51035240,0.50105766,0.47006696,0.43146970,0.40130978,0.31885697,0.26582560,0.23951754,0.18789644,0.16185866,0.12887578,0.13036335,0.09016340,0.10089270,0.07358848,0.06889773,0.05893901,0.05383616,0.04420204,0.05493536,0.02417766,0.03650228,0.04168056,0.04512669,0.04328543,0.04704566,0.03862138,0.03720498,0.03358271,0.04853598,0.06477848,0.07812762,0.08522390,0.06980287,0.10394023,0.11149852,0.12277486,0.14513079,0.15781269,0.17824956,0.18559382,0.19787539,0.23387262,0.21267543,0.23171945,0.22600707,0.21996447,0.22068456,0.20368978,0.20672032,0.18813908,0.17074703,0.16428197,0.14946582,0.15207055,0.16658910,0.15994167,0.18582210,0.19137644,0.21254841,0.23283357,0.25413623,0.30752257,0.33785494,0.32459957,0.37718574,0.39814843,0.41945881,0.40802916,0.44263855,0.45048005,0.44749277,0.46803095,0.44593164,0.44844610,0.45013283,0.46322836,0.43298255,0.41901620,0.37895735,0.35839468,0.35884472,0.31448782,0.27778050,0.28794390,0.26332545,0.29858615,0.26670859,0.26309017,0.30977528,0.32528209,0.29820243,0.30728505,0.30818516,0.28817738,0.26793702,0.24350596,0.24274549,0.23856249,0.21208546,0.20075257,0.20217693,0.19207475,0.21063434,0.22858635,0.24439179,0.28181881,0.30795804,0.34529450,0.40450624,0.43493414,0.45280026,0.53937616,0.56658851,0.64968738,0.63801923,0.71406437,0.76248915,0.76101968,0.73674607,0.72818131,0.68432507,0.64673461,0.62245169,0.62281078,0.59264207,0.54363035,0.52617527,0.47711112,0.42604953,0.35606713,0.30655425,0.25158995,0.24949209,0.20698648,0.18885790,0.18337993,0.19025075,0.16201052,0.16164800,0.18936778,0.21793370,0.19162360,0.17497158,0.18880378,0.19462904,0.20096436,0.20567501,0.22160290,0.24249602,0.19645198,0.22520057,0.22430703,0.24736579,0.21184443,0.25089531,0.24510230
-0.09899558,-0.09709601,-0.09348010,-0.10638994,-0.09657415,-0.11188049,-0.10580920,-0.08204436,-0.10278773,-0.10078533,-0.09916548,-0.10240918,-0.08012022,-0.09283503,-0.10179228,-0.11006272,-0.09965054,-0.10269382,-0.10396318,-0.09984415,-0.08904011,-0.07540606,-0.08157599,-0.08674142,-0.09652945,-0.08928952,-0.07795951,-0.06553400,-0.05534622,-0.07251319,-0.06965792,-0.05630477,-0.06933738,-0.07629809,-0.05578051,-0.04182734,-0.03765336,-0.01441806,-0.01517485,0.00629820,0.02942942,0.03488649,0.03692112,0.04624259,0.06812617,0.03559786,0.03120190,0.00268432,-0.00594074,-0.02062034,-0.02978750,-0.04335631,-0.05057808,-0.04528337,-0.07108840,-0.04364709,-0.05893298,-0.05489994,-0.05156069,-0.05585582,-0.05757050,-0.03923366,-0.05189435,-0.05720021,-0.06203373,-0.04056193,-0.05266067,-0.03617169,-0.02694436,-0.05280412,-0.04240656,-0.03769511,-0.01981029,-0.01160650,-0.02149998,0.01887722,0.03757471,0.05000043,0.05392002,0.10122967,0.08440686,0.07881679,0.10049860,0.09823965,0.13136685,0.16155800,0.18402839,0.23476322,0.28765909,0.32205334,0.35681726,0.38715355,0.41321406,0.40711084,0.38033983,0.40172438,0.39763724,0.35506464,0.32321466,0.29881779,0.27749830,0.24521852,0.20092252,0.19586786,0.14857927,0.13694156,0.10495574,0.07181373,0.06042913,0.06222479,0.05739994,0.08255130,0.08832511,0.09399688,0.12370829,0.15141780,0.12544160,0.14249851,0.13445326,0.13658002,0.11042016,0.10783985,0.08629373,0.05091802,0.05105014,0.02555505,0.03113048,0.02026017,0.01790222,0.03765858,0.02110306,0.04818263,0.03613635,0.05711119,0.09200880,0.09702229,0.11594854,0.11682520,0.12511066,0.15033653,0.16112066,0.20305514,0.21916517,0.21953132,0.21263745,0.21128482,0.21333949,0.19851775,0.18953079,0.17688572,0.15913780,0.12249445,0.13132271,0.10669693,0.10314995,0.11668553,0.09651424,0.11557363,0.11368563,0.09729778,0.10098861,0.05757707,0.06852403,0.05112663,0.03128092,0.04260293,0.03166953,0.03203742,0.02303168,0.01534471,0.03266503,0.02202231,0.03826673,0.03871059,0.02720875,0.05802879,0.05784858,0.05985192,0.07379355,0.08920444,0.11609494,0.12935071,0.12275858,0.17029659,0.16247154,0.18511010,0.21974912,0.20335105,0.21412313,0.21315284,0.23003534,0.20724579,0.20123760,0.20179890,0.18089921,0.16855314,0.13899567,0.14700263,0.11093082,0.10202010,0.10744481,0.09913056,0.08704450,0.10201176,0.09872490,0.13042800,0.13679646,0.14325822,0.17737773,0.20612906,0.23412474,0.25620857,0.29291440,0.32802464,0.35753417,0.41307745,0.43375846,0.46523424,0.48894240,0.50403483,0.49951575,0.49069924,0.50258248,0.42653789,0.42540109,0.39258548,0.39360279,0.29787651,0.28959978,0.26493139,0.20854395,0.19155797,0.17556996,0.15913970,0.14748130,0.16367876,0.12905223,0.15939672,0.12487990,0.14621758,0.13929519,0.13667794,0.09972827,0.12132058,0.10262714,0.10976509,0.12937046,0.13822383,0.16533284,0.19249077,0.22987783,0.24133284,0.30861889,0.33193984,0.37030087,0.41215108,0.40731473,0.46909991,0.41982256,0.44243212,0.47446171,0.41138882,0.42131950,0.41012619,0.41654798,0.37775300,0.35720691,0.33749907,0.35808568,0.32164359,0.29359953,0.30786243,0.27273838,0.24906517,0.22526015,0.17511057,0.13996640,0.12487269,0.10168359,0.11092653,0.08926497,0.06965145,0.07381846,0.08232101,0.06740343,0.09447191,0.10583709,0.08516707,0.10264066,0.07659335,0.09405021,0.09220957,0.09603400,0.08748515,0.09849046,0.12918563,0.11254047,0.12371989,0.10049469,0.11414873,0.11710346
0.11241916,0.14461859,0.11882079,0.15438626,0.15679907,0.13420045,0.13948729,0.13868165,0.12730412,0.12496806,0.12077457,0.09401136,0.10418555,0.10345232,0.09609011,0.10619525,0.10681592,0.10691820,0.11350057,0.10409581,0.11128234,0.10013602,0.11365432,0.14905341,0.15007748,0.15534381,0.17663639,0.17257464,0.17576498,0.16656161,0.15051011,0.13440915,0.13997878,0.15353974,0.15196863,0.14637433,0.17202014,0.15823124,0.19357437,0.19798699,0.18876094,0.19101028,0.20035730,0.17876393,0.15646218,0.18449728,0.18269283,0.15154123,0.15839445,0.15086581,0.13326229,0.13278493,0.13027596,0.13917858,0.12467473,0.11941130,0.14890704,0.13325683,0.13493115,0.14823477,0.13008072,0.12755539,0.13953465,0.13276061,0.13736776,0.12940745,0.13288032,0.13613398,0.15162888,0.14780137,0.14999800,0.14240578,0.16006839,0.21099720,0.20455070,0.22974105,0.21655755,0.21770303,0.26186434,0.23321488,0.26140983,0.28533580,0.28091999,0.32049623,0.35261894,0.37599219,0.38852050,0.44604886,0.46834268,0.45719123,0.51490426,0.50835137,0.54364352,0.55315414,0.54408933,0.56960697,0.55202039,0.60385569,0.58327704,0.56758281,0.56623647,0.51971356,0.45982549,0.40942834,0.36658681,0.32592117,0.27164702,0.25833910,0.24204434,0.24037274,0.21370675,0.20771547,0.22158730,0.20729555,0.21129711,0.21107595,0.23446527,0.22296872,0.20341851,0.21069166,0.19449428,0.20960372,0.19684631,0.20434232,0.19809016,0.22111474,0.24493178,0.23811197,0.27119315,0.29855464,0.30319612,0.34861785,0.36565299,0.39219284,0.38001487,0.42163697,0.42353240,0.41868625,0.43675029,0.41713702,0.40524909,0.40033040,0.35630282,0.35986013,0.32749107,0.32876125,0.30873953,0.27646420,0.27739977,0.28669244,0.29778852,0.28865742,0.28918870,0.30154433,0.33040075,0.30326730,0.28582823,0.27113209,0.26844540,0.24420213,0.24479753,0.21008898,0.21495354,0.21686955,0.20926169,0.18945385,0.20284599,0.18129790,0.23329328,0.20485728,0.19877826,0.22587675,0.21818105,0.20867909,0.25954765,0.26802039,0.29273279,0.28085178,0.31340965,0.34801818,0.37455312,0.36071871,0.40286260,0.40883383,0.46220263,0.47462527,0.48844189,0.47893671,0.46073333,0.45594672,0.42742156,0.40146486,0.42514334,0.38144428,0.37300790,0.35147342,0.33080672,0.33252169,0.34981843,0.36078595,0.36188156,0.38762920,0.41420037,0.43955170,0.42913782,0.50922199,0.52959854,0.55216781,0.59394587,0.61238168,0.60649744,0.63786640,0.64987333,0.67301486,0.66976368,0.64289066,0.62994949,0.61441929,0.59745088,0.54370780,0.52724044,0.49960757,0.46985942,0.42806784,0.43577677,0.43562573,0.40460715,0.39707253,0.41259175,0.40627450,0.45020933,0.46208297,0.44732386,0.49033278,0.46784191,0.47477080,0.43679332,0.43818303,0.43392912,0.38612305,0.33523624,0.35072183,0.34720019,0.30502910,0.29340001,0.31858328,0.30896148,0.35897610,0.34224190,0.41405427,0.45467509,0.47185388,0.51997254,0.52551809,0.57594796,0.62322770,0.60501137,0.62418517,0.62571792,0.60227614,0.59927170,0.56720764,0.60666725,0.58814513,0.55236001,0.52175271,0.51166760,0.49712191,0.45384109,0.44825203,0.41052647,0.40261641,0.36713683,0.32498271,0.29102923,0.31130095,0.26798817,0.26692599,0.25442991,0.26948052,0.26697150,0.29152184,0.30573278,0.28618335,0.26396481,0.29700924,0.27793218,0.28155297,0.31576985,0.30126244,0.30356656,0.32802874,0.31873662,0.33166125,0.33544655,0.31853018,0.33102498,0.34341076,0.33391195,0.33912686,0.35181044
-0.04088049,-0.05475546,-0.04471218,-0.04192861,-0.03420921,-0.03927827,-0.05059428,-0.05246172,-0.04292621,-0.05445725,-0.05333315,-0.04557170,-0.05152404,-0.04617981,-0.06929305,-0.06109760,-0.04935668,-0.04999279,-0.06708253,-0.04786668,-0.06347786,-0.06342142,-0.04012895,-0.05099699,-0.03627176,-0.04196116,-0.01703255,-0.02865074,-0.04091871,-0.03086354,-0.04688777,-0.02505064,-0.03620038,-0.02238872,0.00493037,0.01509218,0.01849329,0.06117372,0.05077169,0.09731052,0.11544906,0.11056455,0.10246236,0.10982721,0.08165715,0.06214454,0.02614615,0.00454483,-0.00454401,-0.02088453,-0.02447816,-0.03562289,-0.02840453,-0.02325375,-0.03944647,-0.04996184,-0.03288130,-0.02741322,-0.04081170,-0.04488287,-0.04602751,-0.05168175,-0.03893318,-0.02837518,-0.03799030,-0.04432522,-0.04177812,-0.03317021,-0.03301885,-0.03019342,-0.03087279,-0.01569630,-0.00260295,0.01293918,0.04995672,0.06720520,0.08771159,0.09448346,0.11495432,0.08478689,0.09848930,0.08691785,0.07779605,0.10618428,0.12363187,0.14969473,0.17169099,0.21753140,0.24860329,0.27330545,0.27909728,0.31049279,0.30761334,0.38083888,0.37503871,0.38456460,0.39611806,0.34201087,0.33841306,0.31088548,0.26512265,0.23725388,0.17395897,0.14724768,0.10722259,0.08311364,0.04505081,0.03704050,0.02885072,0.03245923,0.02527652,0.03436255,0.04743124,0.05462816,0.03839438,0.05946548,0.04987785,0.04481260,0.03661699,0.01916148,0.02139541,0.02033681,0.00144871,-0.00961368,0.00957077,-0.00072977,0.00115753,0.00223018,0.01550027,0.01572703,0.02609056,0.04002476,0.08356227,0.06132616,0.07630480,0.11208838,0.12820191,0.15416009,0.18109439,0.20078572,0.23800009,0.21728492,0.24034359,0.23148537,0.23976357,0.22982313,0.21131387,0.19955801,0.16998660,0.17893860,0.18267319,0.18805932,0.21135874,0.22744306,0.21487415,0.19965605,0.19065522,0.16828386,0.14632348,0.12040018,0.07613000,0.07723216,0.03625821,0.03546205,0.01585866,0.01047778,0.01319417,0.01667913,0.01130529,0.00556643,0.00625736,0.02760195,0.02026212,0.02017310,0.05185883,0.04947178,0.08045596,0.05642239,0.07776146,0.08442787,0.09939346,0.12545807,0.14849403,0.14722842,0.15390322,0.15462115,0.18150006,0.17747552,0.17184064,0.16228971,0.15664178,0.13182348,0.12072092,0.12400511,0.11236073,0.11374518,0.09918426,0.08715970,0.09329957,0.09389356,0.09023554,0.08157727,0.10697688,0.11484897,0.13188401,0.13903206,0.17565317,0.22354354,0.24351822,0.28893378,0.31804444,0.37747016,0.40882947,0.41549919,0.48522482,0.50243515,0.53106124,0.50247196,0.50053163,0.51160016,0.49808775,0.42325602,0.39431333,0.34584468,0.32348935,0.28073181,0.21188365,0.19685846,0.18965571,0.15960468,0.14897328,0.14784235,0.12987207,0.13856302,0.12253098,0.12683640,0.12725990,0.12124503,0.11255738,0.11086401,0.10346366,0.11312138,0.10434963,0.13096850,0.11517654,0.14466540,0.19484931,0.20212518,0.25657256,0.29401717,0.32649599,0.38428055,0.42422204,0.46508675,0.49894743,0.51995241,0.57433947,0.53123120,0.55999813,0.56507116,0.54484580,0.54460312,0.55066901,0.57943549,0.53140524,0.57460731,0.51762165,0.51951298,0.50580139,0.44532762,0.41480599,0.35098164,0.30585044,0.25878778,0.21630684,0.18152915,0.14155191,0.13935639,0.12290066,0.13649461,0.13019278,0.11181375,0.11494819,0.12351415,0.13111124,0.12441448,0.12883809,0.13352361,0.12143782,0.13422096,0.15195206,0.16665611,0.15803418,0.15680013,0.15147861,0.16030227,0.16845171,0.17712721,0.17116598,0.17159283,0.14682385
0.08131615,0.10288502,0.08978202,0.07989696,0.10570535,0.08824422,0.07430085,0.08849159,0.10509846,0.10228148,0.07470854,0.09737148,0.09108647,0.08679800,0.10067104,0.07982223,0.06526810,0.07682342,0.05894818,0.08739593,0.09522490,0.07823151,0.07472884,0.07699293,0.09278505,0.08686972,0.08978420,0.09623753,0.08356693,0.09133887,0.10249783,0.08945683,0.10519729,0.08998290,0.09022094,0.08212312,0.10545703,0.11670549,0.11627746,0.15847788,0.16499665,0.14631087,0.15480929,0.15868684,0.17545057,0.17139823,0.12865849,0.12848852,0.12552883,0.09166026,0.09142799,0.09216732,0.09943791,0.09840598,0.07564388,0.09478227,0.08487125,0.09389192,0.08553035,0.09110842,0.06613479,0.07024859,0.06162151,0.08124835,0.08168344,0.06611592,0.08352269,0.07386898,0.06554728,0.08481337,0.08228316,0.08113762,0.10332983,0.08388603,0.10696317,0.12123980,0.13231618,0.14367156,0.15463835,0.14806924,0.14174769,0.17983088,0.18247223,0.17484589,0.18638675,0.19477690,0.22826623,0.25904614,0.29972545,0.36113424,0.38590623,0.41164242,0.45391170,0.48779970,0.48761885,0.47858602,0.49077474,0.46800817,0.43175743,0.43038061,0.40384477,0.34369843,0.31282310,0.26798023,0.25820570,0.20806210,0.19244146,0.16254484,0.15172312,0.14393369,0.13474187,0.14993741,0.17284032,0.17657795,0.21713040,0.21462019,0.21705362,0.22694256,0.24975910,0.19965969,0.18805693,0.17812481,0.16691040,0.13848448,0.12007212,0.12096585,0.09447874,0.08538066,0.08152864,0.07206329,0.10212519,0.10356648,0.09573028,0.11805809,0.12503619,0.11829688,0.13161755,0.13771753,0.16086783,0.16612530,0.18392576,0.20731969,0.18889935,0.22559224,0.23044677,0.23033767,0.22204721,0.20038770,0.21304299,0.20555806,0.18126734,0.17962945,0.18691098,0.20403271,0.22694277,0.22200293,0.21634614,0.25716871,0.20609678,0.17815907,0.17934884,0.14406962,0.16003059,0.14084980,0.09789748,0.10695890,0.09738308,0.09994052,0.06764976,0.07758652,0.08708941,0.07881833,0.08695740,0.07509356,0.08869327,0.08335452,0.09778871,0.11878674,0.09907135,0.10478645,0.11067237,0.11087166,0.12297849,0.13188365,0.13149905,0.15768640,0.13079139,0.14620343,0.17667072,0.15514186,0.13705014,0.16736198,0.15505844,0.16296092,0.12956253,0.12728747,0.11760058,0.12389109,0.10946550,0.11089990,0.12669962,0.10346918,0.11542166,0.11927442,0.13282930,0.14079470,0.14643306,0.17224065,0.19264814,0.21190994,0.23977249,0.30439669,0.34451826,0.37448897,0.43473844,0.51928415,0.53582832,0.59822816,0.59602307,0.60085376,0.62191635,0.64017799,0.62774798,0.57086421,0.52711664,0.48596450,0.44240206,0.38810855,0.32483806,0.29073821,0.25479905,0.24797720,0.20534976,0.16974916,0.16897412,0.16787026,0.15931427,0.15606480,0.10626189,0.13014346,0.10975931,0.12909337,0.12488394,0.14764397,0.14334437,0.14077273,0.16898444,0.18989211,0.20971543,0.24253967,0.28992526,0.33125549,0.34877483,0.42463103,0.44741254,0.46099574,0.50819233,0.51258924,0.54883679,0.53717904,0.50477869,0.47119535,0.48007814,0.43811691,0.43119582,0.43535731,0.40950674,0.40374273,0.39796586,0.38683157,0.35705871,0.36304872,0.30492123,0.29053834,0.25844758,0.22656640,0.19764299,0.15835009,0.14235229,0.12641580,0.12197383,0.11159530,0.11418317,0.10858554,0.10091634,0.09898379,0.09750544,0.12382713,0.10707356,0.10202151,0.09940583,0.13215498,0.11645466,0.09660919,0.11660492,0.12516489,0.10438980,0.12604044,0.13953379,0.13683771,0.11678582
-0.01261448,0.00397821,-0.00465044,-0.01846035,-0.00560254,-0.00467316,-0.01384893,-0.01205066,-0.01134832,-0.01902950,-0.01982988,-0.01781849,-0.01386352,-0.01164445,-0.02160255,-0.02366688,-0.01897395,-0.01646938,-0.01672396,-0.01466876,-0.01440036,-0.02174676,-0.00522835,-0.01320232,-0.01180676,-0.01389595,0.00873481,-0.00213209,-0.01216811,0.01089172,0.00968471,0.00605552,-0.01945487,0.00562069,-0.00433208,-0.01362819,-0.00072342,0.01178656,0.01108994,0.02695536,0.02852934,0.02130296,0.03994947,0.05414358,0.03765353,0.02980097,0.02945812,0.00161680,0.02360507,0.03038020,0.01003021,-0.00253002,0.02182701,0.01413444,0.01408056,0.01672345,0.01904925,0.01151109,0.02712364,0.02346685,0.01618879,0.02585326,0.02620890,0.01474811,0.01487876,0.00414632,0.01357429,0.01975752,0.01038603,0.01702856,0.01891264,0.01143533,0.02076787,0.02790124,0.04276193,0.03561067,0.05139843,0.06332535,0.07596316,0.08953559,0.11376760,0.12252517,0.13654691,0.16948910,0.17524279,0.21530540,0.27163893,0.30707777,0.37929199,0.40286879,0.45316604,0.49657942,0.51606229,0.55670630,0.56146784,0.57338529,0.55219540,0.51325627,0.50541157,0.46793543,0.43884035,0.40491696,0.32018421,0.29360029,0.22655257,0.22231258,0.17327901,0.13966346,0.11960835,0.10041885,0.10664651,0.12715920,0.13165526,0.14840501,0.15959614,0.15042364,0.16185924,0.16559283,0.16301319,0.14686770,0.15345260,0.12405644,0.12054803,0.07750307,0.08840947,0.08557700,0.06281738,0.05582506,0.06977563,0.06764503,0.06281386,0.07936284,0.08275835,0.10375413,0.09147018,0.09262660,0.10808472,0.10827126,0.10392370,0.12468885,0.11431341,0.12229115,0.12787852,0.12762141,0.13566777,0.14091504,0.13451717,0.13439645,0.13669032,0.12761752,0.11924222,0.14690880,0.18215953,0.19477779,0.21861298,0.23250496,0.25399651,0.25223796,0.24579296,0.21411314,0.18629982,0.17129720,0.14954174,0.11391098,0.10484567,0.11246859,0.08542996,0.06130039,0.09250271,0.08311931,0.09415072,0.06911279,0.10552897,0.11267375,0.09965977,0.10570459,0.12498117,0.12094038,0.13473799,0.14731273,0.16894289,0.18238238,0.22605369,0.23192712,0.26917326,0.28580986,0.29437105,0.29833880,0.34422100,0.31592887,0.32863706,0.31576636,0.32494194,0.30806153,0.27736819,0.24226869,0.22888578,0.19121911,0.18720600,0.17555526,0.16808712,0.15268368,0.14850991,0.15510116,0.15886847,0.16830243,0.20127214,0.20617146,0.23033802,0.23848156,0.31910668,0.32929912,0.40357610,0.41959182,0.46867407,0.53610886,0.57021007,0.60845184,0.65410595,0.65521491,0.64458723,0.65520595,0.60514100,0.58205463,0.53763109,0.48194575,0.43687610,0.37637690,0.37044009,0.29017704,0.25263901,0.22601946,0.20794688,0.20618690,0.18714014,0.15824482,0.15974362,0.16129722,0.16390250,0.14750700,0.14550339,0.13949175,0.14462586,0.13207665,0.16600732,0.16301754,0.17802029,0.17713621,0.20897962,0.26257629,0.29039979,0.35716827,0.35360451,0.44483098,0.48179334,0.51689758,0.54221966,0.54697867,0.52371024,0.51454095,0.51629140,0.50234173,0.43877226,0.45040466,0.41568012,0.40113042,0.39474731,0.41752317,0.40079197,0.37714205,0.35524782,0.36454282,0.31386583,0.31140005,0.25828772,0.20442159,0.16198450,0.14892560,0.13646450,0.13490950,0.10943942,0.13974770,0.12271964,0.12043665,0.12407200,0.10349716,0.13518792,0.13378081,0.14381448,0.16101957,0.15806094,0.14398082,0.15898317,0.14648824,0.15873173,0.15478375,0.18484859,0.19214217,0.17696433,0.17713361,0.17390618
-0.00061308,0.00083148,0.01231542,-0.00554098,-0.01354351,0.01285474,0.00472154,0.00596586,0.00669643,-0.00373036,0.01570792,0.00074564,-0.00246270,0.00546520,-0.00090818,0.01396616,-0.00595348,0.02242929,0.01851939,0.03577441,0.01420374,0.01711163,0.02042618,0.01786508,0.01056030,0.01399472,0.02562369,0.01977982,0.04647397,0.03718426,0.04988495,0.02055127,0.04284569,0.05802265,0.05567071,0.10015660,0.12588127,0.15093207,0.19582386,0.20071124,0.22251931,0.22033828,0.22991248,0.21325766,0.19104616,0.16777203,0.14994284,0.10968074,0.10387482,0.08285871,0.11037245,0.07008798,0.03846263,0.05674257,0.05663672,0.05377154,0.04774462,0.06655959,0.05585652,0.04315560,0.04584672,0.04707157,0.04204593,0.04823231,0.07398136,0.05132988,0.04432184,0.06093559,0.06698301,0.05640432,0.08330643,0.07750043,0.12798523,0.14908094,0.17313483,0.20530586,0.21578009,0.24777369,0.23070574,0.24191958,0.22733318,0.22464303,0.22701926,0.19806612,0.24454781,0.26693274,0.31870363,0.32371846,0.37678211,0.40106192,0.44293676,0.44797183,0.46244367,0.49927697,0.47913445,0.45642167,0.46308661,0.42526988,0.40291602,0.36026981,0.30235902,0.29092402,0.24635826,0.20129962,0.19412709,0.14908274,0.14198738,0.15622983,0.17577546,0.14613036,0.17933272,0.17881519,0.18424716,0.19358844,0.21324643,0.23466190,0.22794130,0.20723393,0.19546593,0.18523278,0.15993048,0.16589964,0.15721646,0.12870657,0.14381118,0.13209543,0.11696076,0.13236290,0.11094578,0.14516777,0.14018422,0.15268042,0.16067198,0.17253796,0.18130470,0.24397071,0.26917921,0.30421304,0.32471452,0.36466229,0.40054684,0.42950029,0.45554116,0.44938918,0.43502059,0.41690189,0.38399843,0.39527135,0.36159575,0.34594419,0.33177484,0.33062511,0.31160991,0.30783130,0.30880311,0.31031893,0.28589007,0.27023110,0.22781607,0.21146188,0.19910892,0.16891156,0.15423082,0.15882297,0.14442611,0.13926124,0.15571731,0.13885708,0.16025399,0.14622808,0.15543739,0.15407441,0.15594781,0.16147171,0.14880904,0.16936734,0.17834773,0.19279350,0.19147876,0.21948923,0.22946428,0.23644154,0.25722996,0.26297326,0.26150429,0.26400348,0.27101633,0.29141004,0.29923037,0.27480439,0.26235105,0.25374603,0.25938043,0.25158574,0.22728387,0.20611349,0.21849605,0.18231061,0.19503018,0.18756623,0.19606272,0.19035584,0.22533423,0.21273163,0.23801546,0.25273411,0.29201830,0.29535900,0.32173790,0.37969577,0.45019855,0.47765928,0.53417207,0.54732387,0.60933923,0.62166405,0.64171729,0.65741201,0.66397110,0.64715158,0.61090113,0.55912214,0.54122740,0.50150117,0.48104219,0.41789966,0.37602988,0.32626924,0.31682000,0.28291390,0.26001755,0.26366713,0.25402769,0.21672543,0.23474060,0.22976890,0.21174078,0.21493641,0.20637772,0.22101397,0.23729443,0.22471173,0.23309904,0.24401724,0.28310643,0.28573789,0.32483468,0.35460313,0.39786639,0.46724385,0.50921528,0.54076905,0.56323756,0.62411310,0.66175622,0.68163662,0.65905415,0.69769821,0.71404405,0.70477546,0.69269152,0.70549866,0.69852110,0.66384893,0.70717005,0.67763844,0.64705917,0.64519002,0.61959206,0.57463353,0.51838964,0.50034226,0.40667678,0.38254623,0.33285673,0.28736997,0.26954884,0.26843133,0.23161285,0.23537554,0.25521651,0.23004018,0.24615524,0.22899871,0.22685618,0.24440709,0.25553034,0.26094102,0.24811265,0.25535834,0.24347970,0.26203106,0.28354945,0.27133050,0.25187364,0.27706126,0.28778277,0.27500466,0.28879304,0.27164593,0.27575576
0.02390259,0.01646017,0.02598521,0.02855517,0.00914739,0.01429120,0.03482202,0.00879638,0.00500104,0.01718308,0.01138151,-0.00626790,-0.01131412,0.00860827,-0.01479949,-0.00683780,0.01189872,0.00435764,-0.00282432,0.00240144,0.01583723,0.00297773,0.01981291,0.00401593,0.01539535,0.03176489,0.02593439,0.01924492,0.02688299,0.02789187,0.01781724,0.04470926,0.03657672,0.03673740,0.04027121,0.04812703,0.09009695,0.11257809,0.13013988,0.13347054,0.16162421,0.16302190,0.17014714,0.16035471,0.14362914,0.12430066,0.11018926,0.08500203,0.06353683,0.05347147,0.02852142,0.04194581,0.03474170,0.00283506,0.02232184,0.02422762,0.01623670,0.01421920,0.01055305,0.03048948,0.01020967,0.01550986,0.01677235,0.02616044,0.01859197,0.02084674,0.01408230,0.02078786,0.02987456,0.03331998,0.03900423,0.05051950,0.06234483,0.09195401,0.09912369,0.09731042,0.15983502,0.15743368,0.17912560,0.18092330,0.15102644,0.16348136,0.17645636,0.16862203,0.19135131,0.19418581,0.23871936,0.25197766,0.31136355,0.31747547,0.33409024,0.38007893,0.38083326,0.40302408,0.37464070,0.39317126,0.38059221,0.37210017,0.36845764,0.33958532,0.32374927,0.26832439,0.25506040,0.22264661,0.20806708,0.18059375,0.15624978,0.12699198,0.13025609,0.13051886,0.14142135,0.16298661,0.15877398,0.18324129,0.17553119,0.19092042,0.19381696,0.17655452,0.16855642,0.17089530,0.12772154,0.10961334,0.11800239,0.09110852,0.07368443,0.09117868,0.07871062,0.08618751,0.10389872,0.14057636,0.12684909,0.14720283,0.17768668,0.19403803,0.19628961,0.24256213,0.24731331,0.25367266,0.27882846,0.30891707,0.34826765,0.35119993,0.37930205,0.36977022,0.37593170,0.33140006,0.29870045,0.27665443,0.26345814,0.25066190,0.25284527,0.22895491,0.19562441,0.19333837,0.19301544,0.21173484,0.18597763,0.17598791,0.17649191,0.15949900,0.13352575,0.13675235,0.11703124,0.09335155,0.09292589,0.11182382,0.08454046,0.10747711,0.10216416,0.09904397,0.11386742,0.09042147,0.11215722,0.10317568,0.10358420,0.11900965,0.13022219,0.13086579,0.14509320,0.14891677,0.15178580,0.17506393,0.18403244,0.19447508,0.17447345,0.19618761,0.18873771,0.19911983,0.20946530,0.21651960,0.21810801,0.18725707,0.19255805,0.20733308,0.17950508,0.18558898,0.18238554,0.17079746,0.17646753,0.18875506,0.19973033,0.20272984,0.20762742,0.23505419,0.23763766,0.28225982,0.30471861,0.32632092,0.36450973,0.41638182,0.43585603,0.47951328,0.49412448,0.49600651,0.54560315,0.59960475,0.58852254,0.62141995,0.60726080,0.58174913,0.54988706,0.51874992,0.49495939,0.48074531,0.44672689,0.39899534,0.34243874,0.33932200,0.30185049,0.30521168,0.29548415,0.29046564,0.27742971,0.27222295,0.28605992,0.30602206,0.26248730,0.27838620,0.27751973,0.23294833,0.23514224,0.23872844,0.23214653,0.21375506,0.23943954,0.25683838,0.28634950,0.31728055,0.33396938,0.37508230,0.44843963,0.43982964,0.49073369,0.50932203,0.54693335,0.60090365,0.58467835,0.62903531,0.56995846,0.65144190,0.62061804,0.59817671,0.59682788,0.55726158,0.58113343,0.57271098,0.53864138,0.54985115,0.51933290,0.49470626,0.45521770,0.40435169,0.36347714,0.31680565,0.29421724,0.25919932,0.23511073,0.22720311,0.22067195,0.19871390,0.20162566,0.20603502,0.21043821,0.21848412,0.19809887,0.20751169,0.21151190,0.23052604,0.22902136,0.22620530,0.21569328,0.21665763,0.21479224,0.23411858,0.23504122,0.23743308,0.24240754,0.22847300,0.24348820,0.24153964,0.25225160
-0.09221480,-0.08943728,-0.09026438,-0.07824103,-0.07987723,-0.05416892,-0.08661398,-0.07796276,-0.06575135,-0.08426735,-0.09271801,-0.08285544,-0.09170344,-0.08867056,-0.07802265,-0.07975397,-0.09394652,-0.08349673,-0.08671866,-0.08674227,-0.09352419,-0.08921908,-0.10648503,-0.07315072,-0.07926028,-0.07552419,-0.05616123,-0.05988565,-0.05890396,-0.06584943,-0.06551567,-0.07013684,-0.05509913,-0.06549393,-0.04660866,-0.02901559,-0.02158808,0.01136157,0.04461751,0.05004019,0.07554046,0.08516063,0.07938381,0.06336473,0.05146707,0.03624422,0.00698842,-0.01088222,-0.01809754,-0.03385536,-0.06008846,-0.06174908,-0.06863190,-0.07040214,-0.08278358,-0.09444077,-0.07158661,-0.07406463,-0.08432438,-0.04658545,-0.06539498,-0.07262268,-0.08372901,-0.07599209,-0.07070990,-0.08355562,-0.07032564,-0.08951408,-0.07614305,-0.05651896,-0.06221874,-0.05321244,-0.04539389,-0.01487109,-0.00000880,0.03923448,0.03256530,0.08344008,0.08159684,0.07013035,0.05262438,0.03414405,0.03917128,0.05658082,0.05356736,0.08031086,0.11251020,0.15295665,0.16716990,0.20600915,0.24712326,0.25309972,0.28876399,0.28187225,0.29281855,0.28278491,0.28112578,0.27135418,0.26647741,0.22065178,0.20118898,0.19204074,0.15159864,0.12894336,0.08295589,0.05345996,0.04834596,0.02810857,0.02263798,0.02678692,0.03056850,0.04228568,0.06224064,0.06839517,0.09196956,0.09424126,0.09505988,0.10276692,0.07543707,0.04946768,0.04360291,0.00428004,-0.00321197,-0.01432211,-0.03585639,-0.01662084,-0.02593051,-0.02095911,-0.01949022,-0.00985646,0.01388918,0.00883701,0.02415114,0.04864093,0.07113474,0.09871694,0.11186023,0.14465921,0.18648106,0.18025439,0.20160460,0.23137623,0.22921761,0.22871926,0.21679518,0.21066453,0.19969423,0.16537298,0.15472130,0.14614166,0.10962604,0.08282209,0.09073100,0.09299071,0.06671909,0.08052204,0.06948131,0.03876379,0.03211502,0.01815996,-0.00665042,-0.01280514,-0.01727224,-0.01676825,-0.04359791,-0.03082556,-0.03689128,-0.04522175,-0.05546345,-0.04000063,-0.02284551,-0.04923637,-0.04973782,-0.04540790,-0.03838501,-0.04591795,-0.03839395,-0.02051559,-0.04054874,-0.03179775,-0.02600101,-0.01114054,-0.02210391,-0.00562328,-0.01551852,-0.02592753,-0.00821333,-0.01229857,-0.01408128,-0.01750896,-0.00237890,-0.00393244,-0.02316287,-0.01178387,-0.01776766,-0.01054518,-0.00995839,-0.01164664,-0.01086210,-0.00723235,0.00281684,0.00486936,0.01658719,0.06458640,0.06476179,0.10353588,0.11297688,0.14980967,0.17398606,0.21637961,0.24636226,0.29686334,0.32022149,0.35373348,0.42225857,0.45455660,0.46106573,0.45305592,0.48964779,0.48075578,0.43276910,0.40614977,0.37219469,0.36274593,0.31109655,0.26416193,0.23361591,0.17783114,0.15494118,0.14163247,0.11188251,0.10237220,0.09465374,0.09151563,0.07720361,0.07363896,0.07769684,0.07039148,0.06911988,0.05202479,0.03879431,0.03798788,0.04204954,0.03960803,0.03114062,0.06829625,0.05972770,0.12005563,0.15097617,0.19061653,0.22991229,0.27305052,0.30957214,0.33878912,0.36837661,0.39478561,0.41278936,0.42856980,0.43571021,0.42446731,0.43041892,0.43339233,0.42873441,0.38409387,0.36925410,0.38209743,0.34249796,0.34751325,0.30715201,0.29695943,0.25313338,0.20455554,0.16140588,0.13467508,0.09204197,0.06391000,0.03639998,0.00775260,-0.00138522,-0.00627793,-0.00892934,-0.01513615,-0.02898812,-0.01640366,-0.01392349,-0.02403873,-0.02576506,-0.03141965,-0.02255282,-0.03334956,-0.01591045,-0.01347220,-0.02612301,-0.03489439,-0.02588635,-0.00954686,-0.02759878,-0.01470134,-0.01257331,-0.02941564,-0.02494520
-0.01136774,-0.00811254,-0.00898480,0.00535023,0.01686282,0.00827691,0.00070486,-0.00323041,0.00160374,0.00743129,-0.00089616,-0.00905141,-0.02110220,-0.00898697,-0.01350955,-0.00879151,-0.01473375,-0.02929641,-0.00853151,-0.02044065,-0.01133083,0.00057772,-0.01440115,-0.00324390,0.01391018,-0.00541165,0.01046769,0.01745838,0.02095777,0.01954477,0.03239444,0.03871243,0.02127287,0.01819541,0.00703433,-0.00416810,0.01148740,-0.00309606,-0.00052322,0.01799941,0.01846694,0.03513368,0.02784899,0.01924143,0.03602736,0.02997638,0.02133706,0.00840284,0.02581901,0.01197041,0.00201919,0.00543330,0.01582199,0.01471730,0.00326206,0.01399931,-0.00036225,0.02121294,-0.00848554,0.02043497,0.01391223,0.02115927,0.01700179,0.02134878,0.00533604,0.01995920,0.02768201,0.01442406,0.01700323,0.03635797,0.03407827,0.02437260,0.03552407,0.04345249,0.03949271,0.03415693,0.03622944,0.06456909,0.04674135,0.08188892,0.09409585,0.10986984,0.12733563,0.14484239,0.16761282,0.19090224,0.24630614,0.27789444,0.32920210,0.36387979,0.45978196,0.44925077,0.47045559,0.49807719,0.49284988,0.53080309,0.51154737,0.52199204,0.46641222,0.46190531,0.40322861,0.42346524,0.37427349,0.34126205,0.29375135,0.28201650,0.22503988,0.21094281,0.18035249,0.15620261,0.17173458,0.14448555,0.15356867,0.17291026,0.20718653,0.20757622,0.20861158,0.22484510,0.24146333,0.21746864,0.21483080,0.18350487,0.16071431,0.14492388,0.12356253,0.12324683,0.11274401,0.12231641,0.10172280,0.09286267,0.12108105,0.13246354,0.15871326,0.18448978,0.18999322,0.19078076,0.19716844,0.22446930,0.22193427,0.23371645,0.21806851,0.21251193,0.21179333,0.17425438,0.17472975,0.16779023,0.16548547,0.13598325,0.14138037,0.13392832,0.13801798,0.13794279,0.13770066,0.16803452,0.16167658,0.15199082,0.17464588,0.16868442,0.17824129,0.18455968,0.15986189,0.14985763,0.15725773,0.14177003,0.10943427,0.10661127,0.11309434,0.09017417,0.11758229,0.10183487,0.11856271,0.10302917,0.11877965,0.10098482,0.12162903,0.12347848,0.13485502,0.14684975,0.15536120,0.17145061,0.17833191,0.20196011,0.20499615,0.21839045,0.23510746,0.26117273,0.26405382,0.26070454,0.28935067,0.27575798,0.28355398,0.26507692,0.29014248,0.27807455,0.24643568,0.25887222,0.25232564,0.23356285,0.22765910,0.21713979,0.21877245,0.22047417,0.24492859,0.24557437,0.23928959,0.29410322,0.31526834,0.35559718,0.35488968,0.41087989,0.44469490,0.49454062,0.47629314,0.53713261,0.59251752,0.62745492,0.66015500,0.67464538,0.74769932,0.70275015,0.72143196,0.68622883,0.67260407,0.64065525,0.60409750,0.57625287,0.53791635,0.52148376,0.44346941,0.41995245,0.41378400,0.37666728,0.35666366,0.34221460,0.35197872,0.34076089,0.34240923,0.34931993,0.32611773,0.35840988,0.32420692,0.29908405,0.28893005,0.29002514,0.27420168,0.26063449,0.27761342,0.26225275,0.31085978,0.32981753,0.36553396,0.40118290,0.44929283,0.48240083,0.52326087,0.53538819,0.60087976,0.59420983,0.58331783,0.57582858,0.56755357,0.54762799,0.54351463,0.49242840,0.46216222,0.42177304,0.41416147,0.36756068,0.38320947,0.36485487,0.33613647,0.36815675,0.33688679,0.30416908,0.31481032,0.26281727,0.25554146,0.26004672,0.24682739,0.24948596,0.23327519,0.24630338,0.23597476,0.23616660,0.24198422,0.26428449,0.23654543,0.22701812,0.25027202,0.26256253,0.24835483,0.25033379,0.23915396,0.25930847,0.26248705,0.27575459,0.27889110,0.28026450,0.26741207,0.28223884,0.31040152
-0.05848032,-0.06568352,-0.05205098,-0.06171076,-0.04109297,-0.05263985,-0.03814390,-0.05070471,-0.06091251,-0.04835475,-0.06924365,-0.06814648,-0.07597605,-0.08256830,-0.06713801,-0.07902055,-0.07390985,-0.08300923,-0.07586585,-0.07027084,-0.07621050,-0.08410490,-0.08084114,-0.07536809,-0.06164431,-0.05288219,-0.03125090,-0.03091094,-0.01093088,-0.02452377,-0.03647371,-0.04604947,-0.04408678,-0.05928055,-0.05730375,-0.05684785,-0.04585304,-0.05435066,-0.05256467,-0.02525716,-0.00837292,-0.00283319,-0.01822313,-0.00968710,0.00188353,-0.00477891,-0.02303519,-0.04118409,-0.04764350,-0.05825660,-0.04599080,-0.05803112,-0.04492043,-0.06180146,-0.06353030,-0.05278600,-0.07160979,-0.04803826,-0.05892032,-0.05961632,-0.06768438,-0.05219286,-0.06166062,-0.06698229,-0.05208342,-0.05865269,-0.03330928,-0.06411370,-0.03954708,-0.04974608,-0.03321021,-0.04895544,-0.03254874,-0.03141292,-0.02636964,-0.01863371,-0.00948806,0.00094818,0.02434943,0.01994352,0.04856796,0.03882479,0.04579854,0.07140157,0.10170475,0.12774744,0.16369583,0.19129924,0.22080429,0.25817085,0.27120759,0.29312987,0.27425332,0.26458424,0.28068841,0.27915154,0.29114635,0.29612783,0.27714940,0.28651720,0.28094111,0.29054049,0.24628019,0.25111604,0.20281597,0.16170637,0.15024850,0.11893560,0.06370687,0.02364331,0.01014936,0.01560799,-0.00414105,0.00555437,-0.00915600,0.00712237,0.00353256,-0.01692022,0.00418852,-0.00820910,-0.00563361,0.01140229,-0.01542078,0.00757708,-0.00700700,0.01071108,0.00792244,0.02322735,0.02599456,0.04546962,0.08018694,0.09914281,0.08852844,0.11948671,0.13477332,0.13854647,0.15944673,0.17489478,0.15625884,0.18773022,0.17392052,0.15309474,0.14587375,0.12585796,0.14478114,0.11655078,0.10895889,0.07535404,0.09167627,0.07264117,0.06510594,0.05837301,0.06159769,0.05372217,0.07723554,0.08607953,0.07284914,0.07487962,0.07553411,0.05613901,0.05015980,0.04863745,0.02753633,0.01693499,0.00883339,0.00872582,0.01600692,-0.01891733,0.00567872,-0.00049067,0.01220114,0.00946310,0.02888318,0.03221856,0.03413662,0.03820225,0.04396895,0.07501532,0.11409139,0.12222096,0.12445145,0.16977381,0.21300338,0.21826585,0.23738067,0.28951090,0.28662700,0.29599009,0.32166843,0.29585218,0.30869198,0.28610555,0.26264165,0.25935875,0.24939829,0.21438162,0.18921324,0.17606556,0.14612847,0.14690548,0.14024782,0.15952577,0.16803137,0.16281522,0.20005690,0.21750482,0.25008921,0.25401442,0.29488149,0.32817712,0.28832353,0.33782971,0.31603898,0.35443079,0.33643201,0.34625895,0.34075842,0.32810774,0.27957276,0.27978145,0.28239123,0.25982563,0.23286064,0.20604220,0.17810592,0.16064160,0.16127229,0.13856484,0.14040496,0.16030018,0.16757285,0.16879957,0.20305168,0.20874120,0.22549963,0.22786633,0.22185153,0.25111207,0.23476021,0.21184981,0.21583534,0.20149254,0.15023694,0.13754834,0.13088379,0.11759312,0.10885083,0.10218748,0.10354554,0.10580167,0.13260345,0.15999453,0.16243633,0.19154987,0.21894548,0.24014599,0.29066356,0.30312156,0.32868671,0.33313560,0.33210974,0.32968316,0.34759599,0.30794962,0.29036247,0.30264069,0.26193565,0.28605113,0.23627628,0.22631913,0.22743101,0.22599901,0.19289651,0.17964319,0.14509703,0.13039800,0.12945082,0.08892683,0.09744428,0.10074338,0.10765716,0.09026115,0.09125843,0.10514162,0.10371118,0.09259584,0.09820174,0.10195954,0.11967611,0.10940206,0.15341364,0.13154748,0.13462916,0.16730501,0.14582540,0.15451699,0.15652898,0.17824507,0.16436748,0.18361060,0.17737118
0.02863660,0.01936962,0.05050694,0.03467190,0.03174740,0.04496579,0.04018437,0.01914903,0.03020414,0.03471952,0.02861689,0.03024260,0.01162326,0.00557903,0.01354387,0.00296830,-0.00025018,0.00914730,-0.00329009,0.00414299,0.00641872,0.00048826,0.01298807,0.00626498,0.04219837,0.04300650,0.05580397,0.05578123,0.06325418,0.05525527,0.03336585,0.02893947,0.02896608,0.01833155,0.02346427,0.01971135,0.02594951,0.02783378,0.03994946,0.02680346,0.04883305,0.04483577,0.04283575,0.04594788,0.04083851,0.03959465,0.04602815,0.01704994,0.02754799,0.02786780,0.00722441,0.02807059,0.01492562,0.03303261,0.01875805,0.01417423,0.01620763,0.02315821,0.02385115,0.01253453,0.01727743,0.01858881,0.01107300,0.01544960,0.00750168,0.02746715,0.01051004,0.01518985,0.03281747,0.01707609,0.01828887,0.02407328,0.03819770,0.05863811,0.05900481,0.06509147,0.06156901,0.07672477,0.05840959,0.07027647,0.09427716,0.09555403,0.11939223,0.16233841,0.18511199,0.21646753,0.23680184,0.29655387,0.29452086,0.36057608,0.34947462,0.38196894,0.37812689,0.36926852,0.38245683,0.38426936,0.36166029,0.35913118,0.36247354,0.37226895,0.33270194,0.33389535,0.29462907,0.29678333,0.25017840,0.21780566,0.19234110,0.18112687,0.14938739,0.13897497,0.12099202,0.13902515,0.16188038,0.16484644,0.17681551,0.18776307,0.16925207,0.17374646,0.17128878,0.13632883,0.11730480,0.11928237,0.10438642,0.10928140,0.08652641,0.08121048,0.08416331,0.13136175,0.13346326,0.14620116,0.15200478,0.18038007,0.20630258,0.20125259,0.22991465,0.24179505,0.25561307,0.23969250,0.25338415,0.21962975,0.24603172,0.19781361,0.17837883,0.18239138,0.16991972,0.14284732,0.12224405,0.10740377,0.10512536,0.08638181,0.09089579,0.09494471,0.07754097,0.09557828,0.07968423,0.09439861,0.08456288,0.08098694,0.07390029,0.07034963,0.07365029,0.06896163,0.07785756,0.05935271,0.05413431,0.05676409,0.05703817,0.06641000,0.06491022,0.06602475,0.05712334,0.08239544,0.08013821,0.07628097,0.08989224,0.08184934,0.09780622,0.09672937,0.11964057,0.13188814,0.14975232,0.13786588,0.14030935,0.16211013,0.17689852,0.18146215,0.19602076,0.19977651,0.19696328,0.18549316,0.17908379,0.17167449,0.17416807,0.15649707,0.17763628,0.15641062,0.16210125,0.14424788,0.17484443,0.17859332,0.17899020,0.23215582,0.24429570,0.25116418,0.28852970,0.32563307,0.37849041,0.40880142,0.41816655,0.44164677,0.48018800,0.48108409,0.48753125,0.49807483,0.48998462,0.50644631,0.52716329,0.51029397,0.47953863,0.46773369,0.47020643,0.44343410,0.43356572,0.37101393,0.36481614,0.33279594,0.31812564,0.31631820,0.29195839,0.27358497,0.28303579,0.30999565,0.30953851,0.32169465,0.32035702,0.35037596,0.31260226,0.28956811,0.28709443,0.28379713,0.25579825,0.24591212,0.22189119,0.20465585,0.19439875,0.19061031,0.18059792,0.20816257,0.22745792,0.24965770,0.31052264,0.30901606,0.32517660,0.34802897,0.39364625,0.42304036,0.40521504,0.39663646,0.39205925,0.40445274,0.37636233,0.36620249,0.31226567,0.29198532,0.25765144,0.24481395,0.21251776,0.21768212,0.19425038,0.18669161,0.15671596,0.16254018,0.15119301,0.13724325,0.12634043,0.10410659,0.12122408,0.12086826,0.10157128,0.08933105,0.11042390,0.10202256,0.08691838,0.11734468,0.10955416,0.11874724,0.11128444,0.11588833,0.12778675,0.11843138,0.12456571,0.13847509,0.12354387,0.12472715,0.13493826,0.14127180,0.13081092,0.12048958,0.13537174,0.13612289,0.12940814
0.13882320,0.11383114,0.12506310,0.11919357,0.11763138,0.11135421,0.11397638,0.10790151,0.10581610,0.11757874,0.10480444,0.12169928,0.09958410,0.09295021,0.08264199,0.10830075,0.09613983,0.09237087,0.09341539,0.09032201,0.11423703,0.08890687,0.10414342,0.12503930,0.10470925,0.11616311,0.10874801,0.11787852,0.11853721,0.12835511,0.11638245,0.13596639,0.08968908,0.11923412,0.10686081,0.12642355,0.10745480,0.12168280,0.11846991,0.14758985,0.15168716,0.15317249,0.15220519,0.16456688,0.15910231,0.15511575,0.14618626,0.14539186,0.12635584,0.10399176,0.09814953,0.10584115,0.10152928,0.09294817,0.09760676,0.09117596,0.10387420,0.09498358,0.08845110,0.10238564,0.10299653,0.09664110,0.07109272,0.09440505,0.10431776,0.09394203,0.09129276,0.07878840,0.08395475,0.08140913,0.09319226,0.07712980,0.09779725,0.11608652,0.10162892,0.13600290,0.13528230,0.14859260,0.15477941,0.16429885,0.17280865,0.17943179,0.20858334,0.23607933,0.25239659,0.26461936,0.32614559,0.34511562,0.39689766,0.43839000,0.44924062,0.46919037,0.52772078,0.51278562,0.52566951,0.54637770,0.52203514,0.53091577,0.48461734,0.46694446,0.44419614,0.39109502,0.35730663,0.32602352,0.27887390,0.24121161,0.21976123,0.18873496,0.20179711,0.17894900,0.17350572,0.16895277,0.20063530,0.22703660,0.22905072,0.22586267,0.24344354,0.24731481,0.23347584,0.20457818,0.18554480,0.17555911,0.14602642,0.12483171,0.12450854,0.09693961,0.09962694,0.10758291,0.12525969,0.10300299,0.13982077,0.14307984,0.16683318,0.17534232,0.16202966,0.19297977,0.20331589,0.20677257,0.22293177,0.21448996,0.24099677,0.21208412,0.20731433,0.20862709,0.22248390,0.20315148,0.19948013,0.18402231,0.16768435,0.16358498,0.18203591,0.17477761,0.17609499,0.17676328,0.22013778,0.23492511,0.22076757,0.20667855,0.18448648,0.14277514,0.14373075,0.13417974,0.10978271,0.10944364,0.09396843,0.08342124,0.09442143,0.08012824,0.08673004,0.09171143,0.07649531,0.09763917,0.09574836,0.09413934,0.09835372,0.09581568,0.11293521,0.10994683,0.11404718,0.13005501,0.14773612,0.15523762,0.16501426,0.18448156,0.19487883,0.18627390,0.19966189,0.18810114,0.20465053,0.21816884,0.20202515,0.20565361,0.18486160,0.17622805,0.17961288,0.16582535,0.13119463,0.15560513,0.16383460,0.14354527,0.14219080,0.16661465,0.18572598,0.18710257,0.21149706,0.20443138,0.24524878,0.28672267,0.31284847,0.36032949,0.39767121,0.43378121,0.45777298,0.51067076,0.56283742,0.60632935,0.59840623,0.63804282,0.63610982,0.62511887,0.59700368,0.56758934,0.53340221,0.53535216,0.45739622,0.40729191,0.37885135,0.35855289,0.30084227,0.28571069,0.26203008,0.23926125,0.24337115,0.22696573,0.23506945,0.20967950,0.20507123,0.21350199,0.20493761,0.20384424,0.17534782,0.16856887,0.16926800,0.17970861,0.15857181,0.17827697,0.19147025,0.23644965,0.24754879,0.31643013,0.33290938,0.35162925,0.41077648,0.44852139,0.47672992,0.50607244,0.51929026,0.52399216,0.52603144,0.48094744,0.49379529,0.45576396,0.43161922,0.42465891,0.40920814,0.41127752,0.38367593,0.35924461,0.34924110,0.29981167,0.31188594,0.27876447,0.24510036,0.21401745,0.22101520,0.15031088,0.13844453,0.10663927,0.11148030,0.09756614,0.09623227,0.10474097,0.12564793,0.09383826,0.10978314,0.10357866,0.11240766,0.11571158,0.12317437,0.10971122,0.12485391,0.11695165,0.11359971,0.14521222,0.13403134,0.11289916,0.13356512,0.13068963,0.12831704,0.14934669,0.13671468
0.03206466,0.04855296,0.05246925,0.05543302,0.05089825,0.05531120,0.05654678,0.04212162,0.03354857,0.03234216,0.04131221,0.02765667,0.03438734,0.03859575,0.03141324,0.03856169,0.04469083,0.05404012,0.03257101,0.02238551,0.04090110,0.02212504,0.04253276,0.03777907,0.05820678,0.03743381,0.03987579,0.04901925,0.06662025,0.05132458,0.05708545,0.05264127,0.04175889,0.05830711,0.04100228,0.05859855,0.06113067,0.07996628,0.10356618,0.11123209,0.10541596,0.10508200,0.11738432,0.13478413,0.10488063,0.11599502,0.09542652,0.08221549,0.07167752,0.06433602,0.06568571,0.04459220,0.06143274,0.05720750,0.04534623,0.03880814,0.05292577,0.05232885,0.04271993,0.06068471,0.05125912,0.03576656,0.03032445,0.04871397,0.06031148,0.05418821,0.04813863,0.06461027,0.06200219,0.05159485,0.06439592,0.07332466,0.08269888,0.06695364,0.07341581,0.11467933,0.12699577,0.13866475,0.15117245,0.15472377,0.18277985,0.18424500,0.21946908,0.23649356,0.24921705,0.30683662,0.33843345,0.38413176,0.40640982,0.47165460,0.50976009,0.53558322,0.54375519,0.58711993,0.57048094,0.54522547,0.55844704,0.51105019,0.49135710,0.45981042,0.42348071,0.36681979,0.33751094,0.32677871,0.24984923,0.23939620,0.18233043,0.18245288,0.16415546,0.15049001,0.14553584,0.18087744,0.18952947,0.21184050,0.21261821,0.22738917,0.21864476,0.21264476,0.22989108,0.19716162,0.18162583,0.15895693,0.15526693,0.12877956,0.11773026,0.11083602,0.11002500,0.11402696,0.11781124,0.11977536,0.12019275,0.14004008,0.14240324,0.15125158,0.17292462,0.17372997,0.18338255,0.19405631,0.24042225,0.25375087,0.22160575,0.24276949,0.24237410,0.25322938,0.24926509,0.22987283,0.23373498,0.22730787,0.22294361,0.21364304,0.18250283,0.19045240,0.20406495,0.21456499,0.21948549,0.23792447,0.24791825,0.23397996,0.20735113,0.21893599,0.19816284,0.15892644,0.13848513,0.13180535,0.11091192,0.10759184,0.12050464,0.10773147,0.11994768,0.11891127,0.12899854,0.11160760,0.12506796,0.13325955,0.14025820,0.14123623,0.16668610,0.17580187,0.17608762,0.20150373,0.21600429,0.23123681,0.26087193,0.31251132,0.30573133,0.31825469,0.33906582,0.33935814,0.32267616,0.33878407,0.35201528,0.32133042,0.31309372,0.29871479,0.28645386,0.27165494,0.23868384,0.22718788,0.20327471,0.20198073,0.20612113,0.19221040,0.20203117,0.23147773,0.23645572,0.25173304,0.28705470,0.31757940,0.32551399,0.38727292,0.37843585,0.45295136,0.48110558,0.54091994,0.59106910,0.60524884,0.63486389,0.67300794,0.67384919,0.69017352,0.67730267,0.65347000,0.60221504,0.58907789,0.50944890,0.48824547,0.47104905,0.40699038,0.35730244,0.33819478,0.32797098,0.30173948,0.26579455,0.26288624,0.25543483,0.24503280,0.23299687,0.25643472,0.22413722,0.22638902,0.23098103,0.21172178,0.22197946,0.20564718,0.22873528,0.21920489,0.23485829,0.26406200,0.29974348,0.31646516,0.36432724,0.41586667,0.45172803,0.49216898,0.50811153,0.56900214,0.58947742,0.59361830,0.62173034,0.56856840,0.57097939,0.51895891,0.53332875,0.46959430,0.45440693,0.45887396,0.47051809,0.44852570,0.43794795,0.42996634,0.40681721,0.39382227,0.37438883,0.32787344,0.29545686,0.24893700,0.23592223,0.22528236,0.20660159,0.20073588,0.19531909,0.18438925,0.17827048,0.19172012,0.18494706,0.17889624,0.20480803,0.19781131,0.17445911,0.18360827,0.20528384,0.22113564,0.21499360,0.22661885,0.22950737,0.24668158,0.23624005,0.24200204,0.23894699,0.22364579,0.22578410
-0.08657958,-0.07398233,-0.06866208,-0.07132634,-0.07885945,-0.05162469,-0.06605338,-0.08337702,-0.09121342,-0.07045866,-0.08977909,-0.08012409,-0.07951926,-0.09573333,-0.08648687,-0.07024361,-0.06423716,-0.08178888,-0.09469682,-0.07850830,-0.08186990,-0.08988259,-0.06985101,-0.06486181,-0.07018909,-0.07633031,-0.08913724,-0.05584528,-0.06520144,-0.07332293,-0.06183248,-0.07000789,-0.07241722,-0.04740093,-0.03861114,-0.04501757,-0.05507375,-0.03111967,-0.02098136,-0.01889382,0.00132140,0.01055936,0.01378093,0.03571501,-0.00162192,0.00599739,-0.01500267,-0.02518739,-0.04091793,-0.04080852,-0.04570367,-0.04686843,-0.04790019,-0.04591159,-0.05286887,-0.05871958,-0.06199525,-0.06156488,-0.05814223,-0.03003771,-0.05420108,-0.06702294,-0.06036910,-0.07054598,-0.03703063,-0.04515754,-0.05455469,-0.03380082,-0.04797117,-0.05151316,-0.04616257,-0.03999011,-0.02963818,-0.03493779,-0.01798512,-0.00214328,0.01270824,0.02281312,0.01722558,0.03482207,0.01313722,0.04657900,0.04456873,0.04734958,0.04851607,0.06956221,0.09593120,0.10605404,0.11397047,0.15965324,0.19236404,0.17669240,0.21107827,0.26501708,0.25403354,0.29674682,0.28442434,0.28799081,0.26136907,0.26783821,0.25515193,0.21921350,0.18462867,0.16923090,0.13022406,0.10619369,0.06377836,0.03937480,0.03616847,0.01343902,0.00233366,-0.00197546,-0.00901850,-0.00923484,-0.00230610,0.00974697,0.01595208,-0.01095988,-0.01095226,-0.01117838,0.00396589,-0.01145276,0.00416932,-0.02033174,-0.00385474,-0.01097578,-0.01948191,-0.00934666,-0.00258809,0.00866297,-0.01473919,0.02713431,0.02016665,0.04472917,0.03013061,0.06682540,0.07488190,0.07211987,0.09072480,0.08996375,0.09876305,0.12058043,0.13518336,0.14814339,0.14032915,0.14349589,0.11509633,0.12311730,0.11687457,0.11265972,0.11069986,0.12684187,0.13244379,0.15405053,0.16681085,0.16904174,0.18240339,0.16813677,0.15286340,0.13215285,0.11869228,0.10403790,0.06008358,0.04219350,0.03274693,0.03187508,0.01411534,0.01600074,0.02071519,0.01672971,0.03160674,0.01750805,0.02860142,0.03859061,0.03123729,0.03972274,0.04542046,0.07111462,0.06337568,0.08523059,0.09843298,0.11011126,0.13219004,0.13532299,0.15751056,0.17305328,0.18324964,0.19869102,0.18390444,0.19316750,0.21538359,0.17970637,0.17369674,0.12875366,0.13139396,0.11323627,0.11533258,0.12520386,0.10983612,0.10026225,0.08554431,0.08802233,0.09609132,0.08187811,0.10622065,0.12437148,0.11632490,0.14882000,0.16511978,0.19411495,0.22050973,0.23463556,0.28191204,0.32415948,0.32782073,0.36158907,0.39318497,0.38388917,0.37059170,0.38669176,0.37703764,0.33495718,0.31532895,0.30024304,0.27393080,0.20461439,0.19911450,0.16345951,0.16573657,0.12957723,0.13451031,0.13071898,0.13875772,0.14276431,0.11677287,0.13676145,0.11856354,0.11445422,0.11605532,0.11403220,0.10123070,0.09506249,0.09771763,0.08874247,0.09339637,0.11510519,0.09830352,0.11954431,0.15709672,0.15712624,0.19733962,0.23865115,0.27338498,0.29716747,0.31721859,0.33789641,0.39240168,0.42687818,0.38911015,0.41985497,0.37787291,0.40161712,0.38982850,0.41282874,0.35534814,0.39273369,0.40069821,0.41182440,0.41022097,0.38698424,0.35571190,0.30080007,0.31699571,0.23925934,0.21863513,0.18209609,0.17607946,0.13436750,0.12930480,0.10666343,0.11794429,0.10933904,0.11270450,0.11180645,0.11724214,0.12711098,0.12706849,0.13635100,0.15097208,0.13142671,0.12627640,0.13824552,0.14312276,0.14290793,0.17083508,0.16559064,0.16948204,0.14375432,0.17776328,0.17069168,0.16313250
0.06982366,0.08125038,0.06191954,0.06345254,0.06844046,0.08205628,0.08208441,0.08044369,0.07214192,0.07484255,0.06842074,0.06657460,0.06964108,0.02775272,0.03528838,0.04694214,0.05378494,0.04323764,0.04296087,0.04716544,0.04665282,0.05357164,0.04612584,0.05991212,0.05915562,0.08147568,0.09252807,0.10576606,0.11068145,0.10896580,0.10298554,0.09347842,0.10042561,0.09411600,0.08441190,0.10203209,0.11074217,0.12067946,0.14721547,0.18033319,0.20011545,0.19103697,0.20650548,0.18780400,0.17033692,0.19424596,0.15057974,0.14927406,0.12976110,0.10993531,0.10225944,0.08811641,0.08069325,0.08808475,0.08828009,0.06619569,0.05460229,0.07448704,0.09216149,0.07208629,0.07049200,0.06268935,0.07672034,0.07468658,0.08351576,0.09577536,0.09358594,0.09153362,0.09571037,0.09318706,0.09024659,0.10186453,0.10037929,0.12593853,0.13189297,0.15229982,0.17175474,0.18944424,0.22194608,0.25701777,0.21923035,0.22511297,0.24305067,0.26497100,0.26438356,0.29794071,0.32995785,0.36648780,0.40724038,0.41878758,0.45266591,0.48514163,0.49779383,0.49326794,0.51347559,0.50722541,0.54760595,0.52191874,0.53944961,0.51472950,0.51613934,0.50252898,0.47286735,0.46442963,0.38486654,0.37313860,0.32510541,0.25823586,0.22470869,0.20491705,0.20165736,0.17050009,0.17480214,0.18476778,0.18428236,0.19534641,0.18995512,0.19465804,0.19608335,0.17928124,0.17302317,0.15365397,0.15202727,0.15059324,0.13191870,0.15522277,0.15685202,0.15716739,0.20146661,0.21532076,0.22540440,0.23699822,0.26367367,0.31364792,0.35095410,0.37488346,0.37164720,0.39777377,0.40081293,0.42495435,0.42130148,0.40265943,0.40318343,0.42610123,0.39942809,0.41242538,0.36867905,0.37862168,0.36037648,0.31140294,0.28160467,0.30046761,0.28198773,0.28207151,0.29360486,0.26269816,0.28101536,0.26342742,0.24599417,0.24287577,0.21217377,0.19038327,0.17423053,0.18110319,0.15420930,0.15749595,0.16087192,0.14598084,0.14928165,0.16433794,0.16846527,0.16260782,0.17308474,0.18364097,0.16807117,0.19944254,0.21699376,0.21260439,0.23049259,0.25077221,0.29229693,0.30011134,0.33926790,0.36403554,0.38778998,0.40995678,0.42576907,0.44801167,0.43663604,0.44207346,0.43027766,0.40086332,0.43411772,0.38583476,0.37141962,0.36514092,0.30928066,0.30417508,0.30461655,0.30585713,0.31422456,0.32345814,0.35475278,0.35151300,0.37323072,0.40272901,0.43192017,0.49459036,0.48375961,0.52602311,0.56310030,0.59609687,0.57618078,0.62289745,0.63281445,0.63627986,0.62938935,0.60957062,0.63113578,0.59985356,0.57055694,0.53581481,0.50477009,0.51605039,0.44193164,0.41607249,0.40209300,0.40214557,0.38364152,0.38648841,0.37886667,0.38218918,0.40316211,0.41634761,0.41628142,0.43141675,0.41343908,0.41906228,0.39979077,0.42075066,0.36579438,0.36692387,0.33843057,0.30118194,0.30539044,0.27937912,0.28225344,0.27840261,0.29536461,0.31369534,0.35045481,0.38133747,0.39040796,0.47691976,0.50024026,0.54187543,0.59184391,0.60105965,0.64716038,0.62138883,0.69975455,0.68064233,0.67292801,0.66202654,0.60339564,0.58683719,0.57152525,0.57948718,0.55253408,0.56416291,0.49267731,0.50493457,0.45033728,0.39429767,0.34798165,0.32922231,0.30773093,0.25306735,0.25445686,0.24969933,0.24654482,0.24150971,0.24945152,0.23529168,0.25004735,0.26021724,0.25234758,0.24210074,0.27968059,0.24615289,0.24673785,0.27453940,0.28125272,0.30114276,0.30086539,0.30134585,0.30625983,0.27759066,0.29421450,0.31191282,0.31517717
-0.06163488,-0.04687088,-0.06225144,-0.03015173,-0.03916248,-0.02096476,-0.02489167,-0.03880064,-0.04038821,-0.04286196,-0.04972850,-0.07271613,-0.07644707,-0.08742725,-0.07311665,-0.06958442,-0.07824882,-0.08669813,-0.08542840,-0.07597491,-0.06623663,-0.10520218,-0.09616351,-0.06183937,-0.07192889,-0.04785809,-0.02321847,-0.01785541,-0.03906647,-0.02674775,-0.01739566,-0.04729612,-0.03785842,-0.04760503,-0.05488660,-0.04844205,-0.04267170,-0.02883175,0.00060486,0.02076587,0.04075254,0.05924954,0.06429648,0.05987992,0.03815657,0.03246405,0.01042227,-0.00533672,-0.01886943,-0.06633061,-0.07151299,-0.08206776,-0.09274192,-0.09519382,-0.08765751,-0.10357252,-0.09272543,-0.10634600,-0.07760099,-0.09236504,-0.09842815,-0.10490635,-0.07297901,-0.08497662,-0.10902176,-0.08051333,-0.09810954,-0.10435098,-0.09183095,-0.10693098,-0.08798610,-0.08449859,-0.08144260,-0.05711458,-0.05207789,-0.02936974,-0.01293558,0.01915296,0.00766267,0.02547163,0.03291517,0.01502465,0.01164747,-0.00097795,0.00311318,0.01136359,0.02878899,0.06034714,0.05105212,0.07758543,0.10243065,0.11656713,0.12776451,0.15218342,0.16724258,0.20151807,0.21431555,0.24600244,0.27586542,0.29853207,0.29481350,0.30278574,0.29116196,0.26158073,0.24601372,0.18604133,0.13293104,0.08726113,0.04446404,0.02713799,-0.00646426,-0.01609082,-0.05030016,-0.04015383,-0.04777854,-0.02472122,-0.02713848,-0.02338526,-0.03407560,-0.04271295,-0.05738252,-0.05761241,-0.06570479,-0.08660237,-0.05396050,-0.06181368,-0.05081573,-0.03375499,-0.03404673,0.00313664,0.03801546,0.05577300,0.07370722,0.09736303,0.14355307,0.16838336,0.18959586,0.22351364,0.22711895,0.22495422,0.24125542,0.21327687,0.22779902,0.24006809,0.21012934,0.17890325,0.15070068,0.13630937,0.10798024,0.06752758,0.05833612,0.02915665,0.03069862,-0.00248539,0.00474685,0.00191418,-0.00020554,-0.01517756,-0.02810004,-0.04152128,-0.05497115,-0.06709040,-0.08569535,-0.07999508,-0.07711049,-0.09648977,-0.09399180,-0.09311100,-0.10560457,-0.11217530,-0.10763153,-0.11496744,-0.11366018,-0.11160125,-0.09309506,-0.11712774,-0.07083532,-0.08139019,-0.08915127,-0.07638717,-0.06001046,-0.05660940,-0.03337967,-0.04349152,-0.03437813,-0.02010864,-0.02810591,-0.00382609,-0.02106124,-0.02430163,-0.00225247,-0.02265000,-0.00752449,-0.01455041,-0.04231423,-0.03038850,-0.04224211,-0.02456689,-0.00958612,-0.01430663,0.01265420,0.01642008,0.03585138,0.08632954,0.11866604,0.14885753,0.17787292,0.22396118,0.24273332,0.29704452,0.28940623,0.35481071,0.35547020,0.35611438,0.36647613,0.35164441,0.36315898,0.32712940,0.30553029,0.27542128,0.27068544,0.21707136,0.20170194,0.17454690,0.14236660,0.12048604,0.09275279,0.07451115,0.08019526,0.09788339,0.09692552,0.11290185,0.13832746,0.14681547,0.19139477,0.19385740,0.18039306,0.18633525,0.16063280,0.14743723,0.10343855,0.09705020,0.06025200,0.02803750,0.00759763,-0.02569247,-0.01829299,-0.01842276,-0.02877295,-0.00326776,0.01156484,0.04896996,0.08263395,0.11642604,0.15645538,0.18313350,0.25343187,0.29467606,0.31991194,0.34673538,0.35937522,0.35627090,0.34349534,0.31464245,0.30418959,0.27187996,0.27219860,0.22893786,0.22821643,0.20524916,0.16722386,0.13767030,0.10266861,0.07223351,0.02418023,-0.02384574,-0.03099652,-0.07211534,-0.09024336,-0.09537100,-0.11175319,-0.09592605,-0.10831845,-0.10984701,-0.14241283,-0.11321251,-0.10037023,-0.12415826,-0.11921790,-0.10764066,-0.09822604,-0.10306302,-0.10072900,-0.09969899,-0.10403381,-0.10648635,-0.10672321,-0.10121814,-0.07492753,-0.09869009,-0.11907091
0.04535370,0.03218053,0.04987373,0.03371221,0.03428448,0.05978653,0.03852663,0.04604162,0.05521820,0.03544058,0.03205484,0.03593183,0.01976689,0.01935155,0.03830829,0.01903060,0.01651880,0.00694848,0.01988553,0.01318277,0.00541014,0.02104719,0.02523608,0.03829961,0.02861185,0.03030640,0.04361252,0.03629541,0.05507580,0.04704758,0.04327370,0.03214457,0.03635417,0.03495449,0.01198076,0.03561712,0.02857200,0.03207220,0.03498811,0.02544957,0.03068897,0.06150251,0.04569558,0.04506158,0.05145135,0.04407646,0.03537737,0.03871829,0.03657039,0.02872576,0.01934302,0.02091920,0.00698673,0.01405404,0.02743045,0.02687667,0.01912371,0.02172306,0.02442221,0.02351647,0.01420333,0.01299951,0.01404410,0.00994769,0.00371486,0.02686972,-0.00197107,0.01954423,0.01854718,0.02155718,0.02003032,-0.00014203,0.00458993,0.02259370,0.01879166,0.01104899,0.02640812,0.04849574,0.05012712,0.06615972,0.07357352,0.07401946,0.11039243,0.12060985,0.17947798,0.21193462,0.22750082,0.27506813,0.31232041,0.35576206,0.40107296,0.39191188,0.42503030,0.42207239,0.43750195,0.42876120,0.40241079,0.37774897,0.36600865,0.34339535,0.34070821,0.31103293,0.27343943,0.24430523,0.19404391,0.15627427,0.14004033,0.11101745,0.10690205,0.09489802,0.08361339,0.08816469,0.09896120,0.10817157,0.12257554,0.10626429,0.12122060,0.13591152,0.11709672,0.09322079,0.08683021,0.07156820,0.05703647,0.05663685,0.03653962,0.03014407,0.05895576,0.04421735,0.04691523,0.03941595,0.05334299,0.06221013,0.07804424,0.09727572,0.09630791,0.11526062,0.10332038,0.11889972,0.12023650,0.10604157,0.11362551,0.09604920,0.08211528,0.08386064,0.08836066,0.08249921,0.07643604,0.06728730,0.05506016,0.06950043,0.07966169,0.07627579,0.09006018,0.08176233,0.10368697,0.09918237,0.11591709,0.11334782,0.09332350,0.08541793,0.06482197,0.05136793,0.03931203,0.02336349,0.03469397,0.02412481,0.00786552,0.01109880,0.01559173,0.01040604,0.00374955,0.01481713,0.02597568,0.01423661,0.03605549,0.03164208,0.04134930,0.04692858,0.05181066,0.06732399,0.09659920,0.10850928,0.12554731,0.15676227,0.17308311,0.17684550,0.18629146,0.20614039,0.21317124,0.19864826,0.21072720,0.19084010,0.17365058,0.15759439,0.16400222,0.13292252,0.12800312,0.11188366,0.08880411,0.08845046,0.08957597,0.09963822,0.11945394,0.09869631,0.12691614,0.14601311,0.16264370,0.17605157,0.22501689,0.24940097,0.26577984,0.29324049,0.34101702,0.38079664,0.38309402,0.41652705,0.43909871,0.47130887,0.47272283,0.43885964,0.46530698,0.42725435,0.39768593,0.34924227,0.30802051,0.28200803,0.26084824,0.22566367,0.21332217,0.17275371,0.15043771,0.15672473,0.12956787,0.16020034,0.13598798,0.14932188,0.13779604,0.11954232,0.12693256,0.09996605,0.08976181,0.08660914,0.09560170,0.08219603,0.08123444,0.06059698,0.09761671,0.09323684,0.11537069,0.16260614,0.17562663,0.22196566,0.25450374,0.28822231,0.31621478,0.34529594,0.36128466,0.33932696,0.32227646,0.31750283,0.30252458,0.26985476,0.24813683,0.21657150,0.23668720,0.20470934,0.20576001,0.18856228,0.15597569,0.16345473,0.16925574,0.13924661,0.09690114,0.10638250,0.08242217,0.04906087,0.04459647,0.02541726,0.03449439,0.02785187,0.03397589,0.02148971,0.01308734,0.00675745,0.03461174,0.03244224,0.03540655,0.03338562,0.03319898,0.02758407,0.02954687,0.03027068,0.04199932,0.05120384,0.04093336,0.03288380,0.05660224,0.06458573,0.05233031,0.06933369,0.06158371
0.04058900,0.04534039,0.05138643,0.04783460,0.04768598,0.02904354,0.02102727,0.02079932,0.02950665,0.03122405,0.03931235,0.02902281,0.00595795,0.02089498,0.02641019,0.01070871,0.01721293,0.03019642,0.02983477,0.03200444,0.03607298,0.01679643,0.02805674,0.02918014,0.04138747,0.03023186,0.04923858,0.03470876,0.03994417,0.05157635,0.03110979,0.03398727,0.05055677,0.04694991,0.04506322,0.04287699,0.06125596,0.05044583,0.08570722,0.08065014,0.09447674,0.09550471,0.11376702,0.10318962,0.08417397,0.07493750,0.07417477,0.05635999,0.07700348,0.04254451,0.04210409,0.02916375,0.03407674,0.04444362,0.04378286,0.03588087,0.02966872,0.04814621,0.04020577,0.04377744,0.03217915,0.03607113,0.04204499,0.02663204,0.03295713,0.03752233,0.04975748,0.02502385,0.04383667,0.03976348,0.04458700,0.04174581,0.06233415,0.06803415,0.07674631,0.09018317,0.11127579,0.11746427,0.13349145,0.11564956,0.13142266,0.14152633,0.15641981,0.17758316,0.20642020,0.22017016,0.31847594,0.32006400,0.37129522,0.42422215,0.44532825,0.49488015,0.46488505,0.52188036,0.51181180,0.52866355,0.51015561,0.51498417,0.49024777,0.40447119,0.40349600,0.38493936,0.30209946,0.26552038,0.21879826,0.17233934,0.15400155,0.14587179,0.09792341,0.12620457,0.10570932,0.14072002,0.12250323,0.12320841,0.14730516,0.15659356,0.15146834,0.14755991,0.14639182,0.13934291,0.13355224,0.10816511,0.10056288,0.09576734,0.08015347,0.06979083,0.07511253,0.06929359,0.08155992,0.07990479,0.06429384,0.08971660,0.10308128,0.10585456,0.11443415,0.12109188,0.12049460,0.14773934,0.16145674,0.17122259,0.16370379,0.16017967,0.18017568,0.16954376,0.17381606,0.17116931,0.17520271,0.17060141,0.14757988,0.18159545,0.16630347,0.16846861,0.21150419,0.23789580,0.24572516,0.21709181,0.25658210,0.23005962,0.19608030,0.17742022,0.13394470,0.14261997,0.09908765,0.10781598,0.08724169,0.08010483,0.06108282,0.06824219,0.07220314,0.05607762,0.06493211,0.08490048,0.07897176,0.08623965,0.07005457,0.08298957,0.09329793,0.09912041,0.13258489,0.11734018,0.15559031,0.17650882,0.19401344,0.22887277,0.26056416,0.25127205,0.26583665,0.29681841,0.31030088,0.28639432,0.29289396,0.27644422,0.23324331,0.22652221,0.21287687,0.18568879,0.16933349,0.14594112,0.15206141,0.13454057,0.12052901,0.12690918,0.12293954,0.14583776,0.14821755,0.16035667,0.19187282,0.22959221,0.24392454,0.26714498,0.33699123,0.39273244,0.43424505,0.46660944,0.52127707,0.52468951,0.61020316,0.63015009,0.61422323,0.62969842,0.61167013,0.59018109,0.54370782,0.44944577,0.44109744,0.38460227,0.36323146,0.30323636,0.27033036,0.22986355,0.19840728,0.20277025,0.16588522,0.16760055,0.14170255,0.15536052,0.15176616,0.14198645,0.13669848,0.14348834,0.14542392,0.12967819,0.12068563,0.13081035,0.12425622,0.14564409,0.15899997,0.17461031,0.21550872,0.27318202,0.28504255,0.36533304,0.39012419,0.45531682,0.48255940,0.49610079,0.51419031,0.50196633,0.46966368,0.50173548,0.47426398,0.43908744,0.43274519,0.42275527,0.42198218,0.40545174,0.40334833,0.41709561,0.37703683,0.36676781,0.34539856,0.31833653,0.27060182,0.24183713,0.19196615,0.16128211,0.12924987,0.10838608,0.11767769,0.10655018,0.07364515,0.10448468,0.08351396,0.09191758,0.10727840,0.09190131,0.10015313,0.10256810,0.11265448,0.10190663,0.12275640,0.11375961,0.11858757,0.12911652,0.13558962,0.14285211,0.13735480,0.14591267,0.13502413,0.14235008,0.16203560
0.14803607,0.14837779,0.18195472,0.17103654,0.20033783,0.20289778,0.18218205,0.18401457,0.18508263,0.18404099,0.16087288,0.13717475,0.13546751,0.11904310,0.11241100,0.10522575,0.10378714,0.11164033,0.12669290,0.10713385,0.11622940,0.11119642,0.13010537,0.14124736,0.16812958,0.17191715,0.22140937,0.23158220,0.24057016,0.21462573,0.17640631,0.18945123,0.16313776,0.15679250,0.15401020,0.16881005,0.16299352,0.17792850,0.18604497,0.18664946,0.20050118,0.20709594,0.22412300,0.21571722,0.20303186,0.17084875,0.18219096,0.15461698,0.15798491,0.15229181,0.12688769,0.13996837,0.14412445,0.13122834,0.13253884,0.12960148,0.13155384,0.12616026,0.12248625,0.12818109,0.12638236,0.14408063,0.12396464,0.13276524,0.13406402,0.13357418,0.13002699,0.14863247,0.13675630,0.15371839,0.14306472,0.13740526,0.15652952,0.17388764,0.19403360,0.20934398,0.21534860,0.23968836,0.22433977,0.23417958,0.25310696,0.22710862,0.23198662,0.25269184,0.27517662,0.27875837,0.32188256,0.31493074,0.35614792,0.37446774,0.39032423,0.44959473,0.42263237,0.46412451,0.50907398,0.55528385,0.55487649,0.62418310,0.62267650,0.69095826,0.70606332,0.70541966,0.69114879,0.64489799,0.56594178,0.52701767,0.42718562,0.38066086,0.31776501,0.27297046,0.25110415,0.27195938,0.24739907,0.24821278,0.23936893,0.24835232,0.21498572,0.24341623,0.21861793,0.20969236,0.20391424,0.20166012,0.20908418,0.20317219,0.22551353,0.23516226,0.27961136,0.29033416,0.34581608,0.35726994,0.41860554,0.46875698,0.50921503,0.58666585,0.57551796,0.60580209,0.60208497,0.60341351,0.59161823,0.60848179,0.57287997,0.53783719,0.47485243,0.44839652,0.43180692,0.40706043,0.37026215,0.36276496,0.31984467,0.30738489,0.30221121,0.28259027,0.27267497,0.26653506,0.27956053,0.25547326,0.24858673,0.22963305,0.24176828,0.23400290,0.20453396,0.23153340,0.20162218,0.21489024,0.20897056,0.22121425,0.21999548,0.21108243,0.16977096,0.19458755,0.20672878,0.22387449,0.23527413,0.20590944,0.21606229,0.24752440,0.25868293,0.24722026,0.26991394,0.26632360,0.28192984,0.29271827,0.29136304,0.32425766,0.35192435,0.33002510,0.34593868,0.34821046,0.36308570,0.36939172,0.35529411,0.32329590,0.35484039,0.34070132,0.33131514,0.36421386,0.35193766,0.34731333,0.37782628,0.42841405,0.45855446,0.49095691,0.54955016,0.63560953,0.70180180,0.78809324,0.78293274,0.82732668,0.86562965,0.88649797,0.94686206,0.93389227,0.90518809,0.87750665,0.80586174,0.80899343,0.74211994,0.71704033,0.65772887,0.63215538,0.58823256,0.56215150,0.53415743,0.47482163,0.48675191,0.47184271,0.49288154,0.48353862,0.52755145,0.56675151,0.64604538,0.66833113,0.69205630,0.72004271,0.74785315,0.75346076,0.71143385,0.73024457,0.70359442,0.64633916,0.58278055,0.50568895,0.49504670,0.45954311,0.38554901,0.40767237,0.38896730,0.36394555,0.38748607,0.41930547,0.43061429,0.46884093,0.51543721,0.57849906,0.62623793,0.67198522,0.74696683,0.73161677,0.77862875,0.79535064,0.74341508,0.75141375,0.70611416,0.68109591,0.63926205,0.61090066,0.51617783,0.55558633,0.51225193,0.48169498,0.46020076,0.44742010,0.39973226,0.37989094,0.35117302,0.36776675,0.35003315,0.33187359,0.31412817,0.31113892,0.32385744,0.34252571,0.31055652,0.31173333,0.30820039,0.30671773,0.32401934,0.32924532,0.31220809,0.34915942,0.33518874,0.36034960,0.34815515,0.33525187,0.33678230,0.33062835,0.35135556,0.35786180,0.35262595,0.36150649,0.35733041
-0.01410887,-0.01502333,-0.02440280,-0.01150118,0.00685182,-0.00713969,-0.01067375,-0.00754948,-0.00285077,-0.02011483,-0.03042770,-0.03226548,-0.04428267,-0.02547453,-0.01780676,-0.05010929,-0.03965544,-0.03297978,-0.04520978,-0.04054613,-0.04065117,-0.03971578,-0.02131929,-0.03190301,-0.01160659,-0.00144131,0.00512492,0.00230685,0.00689290,-0.00747132,-0.01822050,-0.01646489,-0.02589478,-0.01717846,-0.02233912,-0.02075247,-0.02456312,-0.01388607,-0.00018323,0.00847990,0.00387001,0.00060090,0.00235902,0.00226802,0.00671456,-0.01024135,0.00033194,-0.01233274,-0.01338017,-0.03559847,-0.02955088,-0.03231291,-0.03172004,-0.04328729,-0.02020397,-0.04187597,-0.04349603,-0.04253250,-0.04603093,-0.02570559,-0.03609592,-0.03213089,-0.04498777,-0.03890984,-0.02547098,-0.04099619,-0.04117105,-0.01902113,-0.03413531,-0.02989965,-0.02074148,-0.02835459,-0.01165072,-0.00053035,-0.00154742,0.00326021,0.00237850,0.01595469,0.02474673,0.04051265,0.04374861,0.06701290,0.10217723,0.09076624,0.16816694,0.18689333,0.23789282,0.29141912,0.32031675,0.37235963,0.40418123,0.41073027,0.45023047,0.46190413,0.48429533,0.46644960,0.49696102,0.46147332,0.45251221,0.48243036,0.41125931,0.36822867,0.32562161,0.27299174,0.23054455,0.19368227,0.15347661,0.09937773,0.10185068,0.09723336,0.11981400,0.11596644,0.13288293,0.16496953,0.15208791,0.16771927,0.14300592,0.14069289,0.11768367,0.10183885,0.07800428,0.06024092,0.05030183,0.04296624,0.03788779,0.05412641,0.02707989,0.03976925,0.05783063,0.09907536,0.09839014,0.11481657,0.14149963,0.14517404,0.17500521,0.16421661,0.18294403,0.16441667,0.15198409,0.16428203,0.13245026,0.10841943,0.12408981,0.11440593,0.09636941,0.07434237,0.08582746,0.09481390,0.05583342,0.08148990,0.11154892,0.10971266,0.13298221,0.13920743,0.15210547,0.16353560,0.14271554,0.14578920,0.11309219,0.07350805,0.06585150,0.04256298,0.04715693,0.02656104,0.00643227,0.00551356,0.01104697,0.02132803,0.00514331,0.00825713,0.00538837,0.02358246,0.01145377,0.02960724,0.02541918,0.04585903,0.03215415,0.03999397,0.04224304,0.05582016,0.05694062,0.07199076,0.07183153,0.08179013,0.08056437,0.08022325,0.11257344,0.10021047,0.11673084,0.08998609,0.09986515,0.07946601,0.07732496,0.07996415,0.07367935,0.08326761,0.09606566,0.09722936,0.11142029,0.10694812,0.12054136,0.16043115,0.19800283,0.22027849,0.25306254,0.29870510,0.34300480,0.38495363,0.46311099,0.47121963,0.50859445,0.58244810,0.61697475,0.66340116,0.68286844,0.68387175,0.72968025,0.71556809,0.70072611,0.66640879,0.63247118,0.59577082,0.52895410,0.47287388,0.42971327,0.33631566,0.33608882,0.29312588,0.27828080,0.25792333,0.25892233,0.26639646,0.25665373,0.26583883,0.22294037,0.25560824,0.22139007,0.21937124,0.20977076,0.16437349,0.17299774,0.13480154,0.16099744,0.15848296,0.15219431,0.17733028,0.20342111,0.25235940,0.28259002,0.32549413,0.39644842,0.44578356,0.51224668,0.54776587,0.54148523,0.54113241,0.52043281,0.50195620,0.50023866,0.47816510,0.43993096,0.40843195,0.35829495,0.36987646,0.32471385,0.30314143,0.30039772,0.27345868,0.26676681,0.21705412,0.21139261,0.17565630,0.14158338,0.12704976,0.09049445,0.06503124,0.06333661,0.05189223,0.05015102,0.04177894,0.04369761,0.05110932,0.04398696,0.04911718,0.04834255,0.05025502,0.05538994,0.05349406,0.06519066,0.06607875,0.05780153,0.05905240,0.06630184,0.05210345,0.04927428,0.05996171,0.07928320,0.09046069,0.06734636,0.06824663,0.06232276
-0.03681856,-0.02286784,-0.02894165,-0.01740342,-0.01160149,-0.00821320,0.00615238,-0.00196243,-0.00025546,-0.00616158,0.00055259,-0.02251665,-0.02753435,-0.03993706,-0.03195809,-0.05167011,-0.03742185,-0.04319345,-0.04957518,-0.04754560,-0.03517737,-0.04368018,-0.02632615,-0.03106042,-0.00574965,-0.00819157,0.00939882,0.02058937,0.03549219,0.03137818,0.02447172,0.02338119,0.00632135,-0.00329670,-0.00819049,-0.00027854,0.01042368,0.01904236,0.04943516,0.07138773,0.09013721,0.09519646,0.10471079,0.11125136,0.10782642,0.09019241,0.09555160,0.07642339,0.04364886,0.03452741,0.02116126,-0.00075280,-0.01749105,-0.00843151,-0.02376994,-0.03179139,-0.02843480,-0.03715832,-0.01780837,-0.01941993,-0.01980438,-0.02414056,-0.02755017,-0.01253072,-0.02213224,-0.02906250,-0.01101510,-0.01983747,-0.01629773,-0.01027163,-0.01526799,-0.00426968,0.00052172,-0.00302607,0.00392818,0.04069066,0.06987445,0.07200436,0.09826075,0.13618281,0.11210538,0.10584310,0.09306010,0.09238811,0.07739509,0.07881909,0.08029820,0.11020863,0.10517336,0.10482036,0.13650567,0.15105613,0.17867718,0.21005211,0.21421119,0.24813518,0.27060956,0.30834982,0.33675476,0.37425468,0.36129759,0.40910470,0.39144376,0.41901445,0.36247498,0.32992029,0.27837170,0.22884742,0.17511429,0.13394719,0.11357642,0.07721724,0.08509964,0.05293584,0.04164978,0.06008106,0.04393417,0.05467737,0.06178461,0.03564594,0.04299566,0.03592001,0.05305661,0.04008816,0.03429062,0.03572776,0.05473607,0.07165323,0.06120980,0.07691398,0.10620909,0.12206629,0.16897720,0.19146963,0.22813605,0.27455038,0.28104214,0.30409088,0.32783978,0.35455116,0.38265856,0.36581828,0.36917243,0.36693141,0.35435239,0.34668313,0.34464066,0.30353510,0.29148048,0.26949684,0.23480040,0.20107260,0.18742039,0.17319911,0.17127090,0.15405990,0.17190798,0.15267746,0.15316089,0.12472132,0.13081599,0.12357721,0.08709312,0.07272366,0.07259373,0.04679746,0.04305702,0.03461547,0.03688233,0.05704278,0.05542733,0.04458854,0.05003078,0.03739431,0.05743291,0.05668887,0.04452221,0.06246051,0.07323491,0.06006578,0.06943255,0.09000818,0.07942351,0.10698513,0.10667114,0.11873035,0.12677744,0.11990768,0.12031992,0.14315648,0.13416930,0.14569156,0.14753201,0.13008619,0.14922012,0.11648303,0.13041406,0.11949696,0.12852970,0.13990692,0.15289992,0.14441128,0.18058717,0.22428817,0.25538865,0.27142351,0.30093207,0.35260172,0.38139282,0.43147692,0.43819794,0.48379750,0.49107828,0.48157106,0.50944966,0.50892995,0.51774332,0.50470578,0.50802668,0.44965474,0.44854215,0.41484255,0.41123536,0.33123259,0.33185465,0.31799055,0.26201399,0.26359080,0.24228700,0.22994421,0.25629175,0.27502795,0.25192413,0.31533452,0.33945270,0.37120724,0.37696300,0.35776905,0.35883822,0.36259202,0.34446361,0.31379713,0.29613171,0.24344291,0.24110748,0.21350413,0.18183218,0.16765283,0.16170200,0.14806197,0.16353580,0.18533407,0.21509265,0.25857226,0.31425756,0.33410337,0.36751585,0.40448355,0.45270498,0.50542416,0.53824279,0.57068353,0.59034249,0.58256178,0.60000550,0.54252314,0.55583181,0.50498716,0.52335374,0.49647888,0.46774734,0.41519023,0.40961615,0.37415321,0.33422787,0.27888338,0.22539313,0.21287745,0.17145436,0.14872107,0.15088345,0.11381491,0.10696432,0.11012928,0.10819616,0.11836710,0.10375426,0.11290383,0.10307665,0.10911556,0.12466772,0.12011510,0.12942114,0.15668641,0.11137283,0.11397868,0.11732368,0.11561236,0.13433313,0.11680712,0.13406436
0.11744925,0.11882745,0.11120117,0.13843197,0.13240858,0.14037207,0.15024581,0.13707838,0.11214596,0.13227826,0.11293964,0.11149635,0.12025561,0.10942660,0.10357811,0.11426325,0.10760807,0.10906212,0.11015010,0.12295401,0.10447891,0.11511656,0.11522146,0.13216868,0.14449109,0.13038357,0.15202272,0.15923974,0.15476881,0.16165311,0.16060039,0.16116995,0.13729309,0.14953573,0.14043091,0.14569700,0.16473594,0.16267173,0.19032382,0.19034051,0.21064798,0.21340694,0.20794716,0.22963772,0.21023988,0.19719128,0.17886445,0.15668700,0.15264489,0.14239670,0.14194692,0.14241559,0.11944984,0.12180620,0.12756505,0.14498336,0.14242619,0.14575154,0.12717987,0.13911072,0.12625693,0.13874401,0.14195835,0.14549407,0.13386329,0.13776818,0.12356514,0.12616939,0.15002075,0.14426693,0.14429218,0.16052461,0.12164641,0.17381004,0.18461950,0.21936294,0.20554803,0.24521606,0.25073879,0.22876037,0.25522779,0.25568941,0.25328366,0.26488093,0.28535077,0.28918751,0.34597979,0.36244600,0.41212208,0.44951710,0.46644268,0.49882020,0.50824135,0.53919046,0.59289457,0.58524693,0.58088633,0.62063503,0.58167568,0.58574508,0.57068379,0.55289858,0.47677800,0.45959900,0.41677269,0.36663296,0.32905035,0.29129317,0.26266395,0.25141377,0.25796328,0.24813588,0.27596016,0.26440921,0.28833488,0.28642434,0.27632096,0.25987527,0.25226359,0.26034414,0.24053499,0.24684899,0.21786776,0.20149421,0.22192915,0.22622322,0.22262765,0.23919999,0.21434905,0.26492905,0.28498782,0.28885689,0.33316830,0.34278814,0.34693690,0.35633352,0.38722266,0.38260584,0.40380942,0.42874069,0.41480310,0.40033088,0.42096627,0.39846760,0.38093298,0.37333803,0.34515863,0.32442011,0.33392665,0.33162158,0.32422275,0.29479458,0.32689904,0.34955857,0.33185578,0.33760096,0.34003153,0.34175180,0.30276000,0.30743777,0.27220863,0.26924309,0.24166668,0.24015968,0.22025099,0.21862805,0.23383760,0.22505416,0.23019517,0.23512646,0.20125489,0.23824662,0.22952209,0.21610520,0.22764200,0.24346065,0.24393640,0.23167561,0.24806692,0.24060165,0.27832907,0.29139561,0.27557400,0.30159482,0.30848953,0.30206198,0.31834077,0.33684518,0.35611924,0.34817670,0.32650019,0.32685743,0.32182907,0.30987205,0.30830837,0.29798967,0.30952595,0.31840199,0.32042533,0.33376027,0.35107516,0.34907581,0.36712642,0.42139280,0.45334387,0.44514195,0.51359696,0.54016793,0.58436880,0.60471381,0.68061915,0.70691693,0.69776705,0.74811500,0.78679059,0.81359842,0.85073614,0.79128419,0.81069221,0.74223439,0.74883011,0.72720714,0.67736321,0.62048525,0.60636888,0.53570840,0.52124190,0.47308552,0.45508784,0.46011088,0.45583596,0.46320439,0.48549402,0.43183377,0.46758137,0.49171648,0.46542126,0.44180607,0.45130455,0.42010443,0.39417991,0.39824911,0.37245602,0.35980276,0.37010408,0.35867860,0.37953967,0.43231900,0.42586472,0.47075973,0.51990302,0.58907735,0.60362407,0.66152652,0.65962129,0.72678721,0.75704448,0.77291972,0.73766041,0.76358123,0.70849092,0.74400819,0.68951708,0.63780982,0.64768821,0.59907418,0.62632266,0.60753957,0.55174102,0.58012998,0.52441270,0.51877011,0.47140318,0.41244565,0.39321347,0.34491476,0.33170128,0.31338779,0.34300971,0.31403763,0.31202861,0.31647753,0.30292944,0.30023101,0.29272156,0.29628629,0.30836451,0.32936350,0.33804981,0.32020636,0.33860822,0.31271122,0.33798106,0.34396612,0.31328479,0.33102920,0.32565943,0.33816517,0.34141330,0.34821412,0.34840830
