1000,1005,1010,1015,1020,1025,1030,1035,1040,1045,1050,1055,1060,1065,1070,1075,1080,1085,1090,1095,1100,1105,1110,1115,1120,1125,1130,1135,1140,1145,1150,1155,1160,1165,1170,1175,1180,1185,1190,1195,1200,1205,1210,1215,1220,1225,1230,1235,1240,1245,1250,1255,1260,1265,1270,1275,1280,1285,1290,1295,1300,1305,1310,1315,1320,1325,1330,1335,1340,1345,1350,1355,1360,1365,1370,1375,1380,1385,1390,1395,1400,1405,1410,1415,1420,1425,1430,1435,1440,1445,1450,1455,1460,1465,1470,1475,1480,1485,1490,1495,1500,1505,1510,1515,1520,1525,1530,1535,1540,1545,1550,1555,1560,1565,1570,1575,1580,1585,1590,1595,1600,1605,1610,1615,1620,1625,1630,1635,1640,1645,1650,1655,1660,1665,1670,1675,1680,1685,1690,1695,1700,1705,1710,1715,1720,1725,1730,1735,1740,1745,1750,1755,1760,1765,1770,1775,1780,1785,1790,1795,1800,1805,1810,1815,1820,1825,1830,1835,1840,1845,1850,1855,1860,1865,1870,1875,1880,1885,1890,1895,1900,1905,1910,1915,1920,1925,1930,1935,1940,1945,1950,1955,1960,1965,1970,1975,1980,1985,1990,1995,2000,2005,2010,2015,2020,2025,2030,2035,2040,2045,2050,2055,2060,2065,2070,2075,2080,2085,2090,2095,2100,2105,2110,2115,2120,2125,2130,2135,2140,2145,2150,2155,2160,2165,2170,2175,2180,2185,2190,2195,2200,2205,2210,2215,2220,2225,2230,2235,2240,2245,2250,2255,2260,2265,2270,2275,2280,2285,2290,2295,2300,2305,2310,2315,2320,2325,2330,2335,2340,2345,2350,2355,2360,2365,2370,2375,2380,2385,2390,2395,2400,2405,2410,2415,2420,2425,2430,2435,2440,2445,2450,2455,2460,2465,2470,2475,2480,2485,2490,2495,2500
-0.07063895,-0.08266811,-0.07560760,-0.07216046,-0.08659102,-0.07544516,-0.07781608,-0.07152007,-0.08124658,-0.09372966,-0.10812440,-0.08047974,-0.09716268,-0.10023852,-0.10142155,-0.09025075,-0.10729050,-0.09060072,-0.10370504,-0.09599730,-0.12676314,-0.09409096,-0.10484610,-0.08870720,-0.08426573,-0.09706652,-0.10168614,-0.06425533,-0.06531889,-0.07658179,-0.07420037,-0.08523549,-0.07670157,-0.08883433,-0.06591116,-0.07537056,-0.06265687,-0.07614822,-0.06267724,-0.06323377,-0.05360964,-0.05275753,-0.04369677,-0.05393252,-0.06796147,-0.05525131,-0.06501647,-0.06647920,-0.09180262,-0.09728621,-0.10519764,-0.08520184,-0.10206817,-0.10217992,-0.09988691,-0.08131078,-0.08136140,-0.08054393,-0.10122102,-0.08179235,-0.09387413,-0.09572638,-0.08452513,-0.07285121,-0.09954606,-0.08212659,-0.10569188,-0.09888122,-0.09814394,-0.09172951,-0.08921322,-0.07453896,-0.06870454,-0.08919372,-0.06584662,-0.04358021,-0.04999313,-0.03873804,-0.02853110,0.00035779,0.02833391,0.01681137,0.05502416,0.07828403,0.11506273,0.14863750,0.21906087,0.24137793,0.28601222,0.29841393,0.33117364,0.34985285,0.36350913,0.37020085,0.35268333,0.35526061,0.36611425,0.32610534,0.30329795,0.25385789,0.24901596,0.20518859,0.16036248,0.13869755,0.09652158,0.04282490,0.02301505,-0.02073652,-0.03718693,-0.03320802,-0.05534528,-0.04696259,-0.03614187,-0.04187452,-0.04366594,-0.03428600,-0.02744115,-0.03689318,-0.03518363,-0.04648632,-0.02817812,-0.05934166,-0.04981926,-0.06813216,-0.06829333,-0.05797997,-0.06948592,-0.07175188,-0.06347384,-0.04476940,-0.03500646,-0.02251683,-0.03398372,-0.01753072,-0.00041746,-0.00029134,0.01714347,0.00231550,0.02021137,0.02445400,0.02583542,0.00613692,0.02119052,0.02085105,0.00732918,0.01742534,0.02690092,0.01620617,0.00501866,0.00680458,0.02063789,0.03943583,0.03911331,0.07728211,0.09329952,0.09246422,0.09337334,0.07118417,0.06196608,0.01760918,0.00072223,-0.01553447,-0.03836947,-0.04876652,-0.05434789,-0.06165001,-0.05703651,-0.05954661,-0.06642980,-0.08016704,-0.06907608,-0.03565479,-0.04484468,-0.03553360,-0.02747226,-0.01391515,0.01202906,0.03758144,0.06103601,0.08479810,0.11876544,0.13511581,0.16689616,0.18819182,0.22427704,0.24913140,0.26594306,0.26197470,0.27763091,0.26177193,0.24135884,0.22370111,0.18505354,0.14929699,0.14292496,0.11316368,0.08001961,0.07323773,0.03902567,0.02680996,0.01803125,0.02269596,0.03600666,0.04161534,0.04811016,0.06451913,0.08605098,0.11867407,0.15121897,0.17540815,0.21605708,0.23545010,0.27613959,0.29124315,0.31777027,0.34607301,0.35291327,0.33719472,0.35744467,0.34217887,0.31066957,0.28822733,0.23264697,0.21321220,0.18652876,0.13816741,0.11650104,0.08438352,0.08279824,0.04715134,0.03598606,0.04133392,0.04300925,0.04296923,0.04288973,0.03326921,0.02747595,0.01753168,0.00947471,0.01776812,0.00753436,-0.00518045,-0.02354707,-0.00651239,-0.01543659,0.00883025,0.02960172,0.03646853,0.07926104,0.10198363,0.13517447,0.17110643,0.19825600,0.25702679,0.28388103,0.28027618,0.31138790,0.28024854,0.27954461,0.24852013,0.27175919,0.24212066,0.24400321,0.24402702,0.25346524,0.24078869,0.22432095,0.20951897,0.19652294,0.16726725,0.16948040,0.12823366,0.08207776,0.04598639,0.03523325,0.01190640,-0.02195544,-0.01508403,-0.03297069,-0.03770155,-0.02119225,-0.01037756,-0.01355110,-0.02124656,-0.02122230,0.00153215,-0.00218696,0.02822805,0.01136971,0.00095241,0.02324827,0.03129601,0.02353127,0.03008294,0.05915790,0.04755457,0.04746343,0.05488248,0.03809466,0.05474758,0.05717539
-0.08894509,-0.09488703,-0.11150078,-0.08794275,-0.09859880,-0.11394762,-0.08781595,-0.07598055,-0.10072285,-0.09925773,-0.10754466,-0.09652347,-0.08862233,-0.10074088,-0.10804766,-0.10716303,-0.09711662,-0.08596570,-0.09459697,-0.09358925,-0.08349580,-0.09331795,-0.08642376,-0.09803220,-0.09216331,-0.09024613,-0.07954835,-0.09423105,-0.08536547,-0.08825008,-0.08019576,-0.08717720,-0.07468080,-0.08438945,-0.06939396,-0.06676584,-0.04454513,-0.02116483,0.01553999,0.02910005,0.04569372,0.06420763,0.06868742,0.05556281,0.05207839,0.04181818,0.00347630,-0.00572373,-0.02694357,-0.05567040,-0.05792364,-0.08414368,-0.08652040,-0.09077826,-0.09080444,-0.09339318,-0.07145661,-0.07697993,-0.08119474,-0.07529914,-0.08445690,-0.07872412,-0.07986744,-0.07659879,-0.07987211,-0.07633287,-0.08479037,-0.08740498,-0.07956902,-0.07427656,-0.07037666,-0.06910727,-0.05404406,-0.03068398,-0.02336387,0.01609808,0.03730727,0.06398217,0.06508509,0.07118797,0.07639591,0.07337192,0.05587345,0.10605844,0.13652531,0.16953339,0.21880678,0.25674316,0.31274626,0.38355861,0.42269960,0.44739882,0.42349848,0.42590332,0.42487014,0.39008607,0.33120054,0.28744717,0.26175961,0.21961733,0.16091450,0.14731198,0.10498444,0.06389079,0.06027310,0.01942413,0.01484610,0.01306423,0.00330150,0.03983176,0.07068710,0.08742583,0.13463942,0.14154711,0.15870281,0.18524251,0.20803331,0.18920506,0.18167400,0.12503972,0.09848309,0.07094645,0.03016539,-0.00208835,-0.01634722,-0.01546932,-0.02372882,-0.02548407,-0.03284753,-0.03832744,-0.01839618,-0.01714303,-0.01071470,0.00303637,0.02383253,0.04010646,0.05852192,0.08612861,0.11008006,0.13987470,0.17019587,0.16918789,0.19572450,0.19935439,0.21471840,0.18916075,0.17902712,0.16101556,0.12995751,0.10209624,0.08426567,0.06066700,0.05356235,0.01005047,0.01256799,0.01825354,-0.00276625,0.00030687,-0.02588791,-0.01429140,-0.03782751,-0.02498971,-0.01701377,-0.03450165,-0.03747810,-0.06420207,-0.04365529,-0.04246238,-0.05950794,-0.04208356,-0.03842619,-0.05374210,-0.04785401,-0.02268250,-0.04120117,-0.03877008,-0.02319181,-0.02561471,-0.02428534,-0.00236682,-0.00386273,-0.02463089,0.01137095,0.00385363,0.00872741,0.01649756,0.02688101,0.02015038,0.02208429,0.02970200,0.02859956,0.02286665,0.01500078,0.00296067,0.00543143,0.00737039,0.00302702,-0.01626136,0.00481363,-0.00820354,0.01597544,0.00671154,0.01536885,0.02279215,0.02579680,0.06036334,0.08565905,0.10975843,0.13807844,0.16729790,0.21221922,0.24191446,0.31841406,0.36834227,0.41412290,0.46385541,0.50000111,0.57029674,0.52387118,0.60539693,0.58837709,0.54768602,0.55182016,0.50408951,0.43008459,0.39819279,0.33159608,0.28067601,0.23135794,0.18160074,0.15222246,0.09708642,0.10009716,0.07545067,0.07827236,0.06739057,0.05900272,0.04372656,0.03051177,0.03342793,0.02658842,0.03619443,0.03807620,0.04300749,0.06563384,0.09941076,0.10070925,0.13087513,0.18146662,0.25396681,0.26208881,0.32749029,0.36832831,0.42545291,0.40940963,0.43826967,0.42925831,0.46267838,0.44945778,0.45795954,0.42278011,0.38426839,0.38059469,0.34750456,0.29702678,0.28212896,0.27680418,0.27562451,0.24431224,0.24081300,0.21238242,0.16461916,0.14539152,0.12221660,0.07125811,0.03847389,0.02672810,0.01802457,-0.01874701,-0.00450122,-0.02945321,-0.01652147,-0.01313445,-0.00383776,-0.01868668,-0.01757471,-0.01612681,-0.01082798,-0.00488222,-0.01945605,-0.00101687,-0.01364006,-0.00945889,-0.01753687,-0.00797359,-0.01079794,-0.00180447,0.00517741,-0.00336519,-0.01238610,-0.00088476
0.04104019,0.03388076,0.02989911,0.05349106,0.05334672,0.03054155,0.05652683,0.06273420,0.04919934,0.04306689,0.04157927,0.01378028,0.01634086,0.02650896,0.03198874,0.01194884,0.01069646,0.00686486,0.02517868,0.01615475,0.01135262,0.01102683,0.03385759,0.01895019,0.03295162,0.04249950,0.05016828,0.07550905,0.05606116,0.06734719,0.04692014,0.05209875,0.03777994,0.04489892,0.02754986,0.02133379,0.03446415,0.03707399,0.02373215,0.03196824,0.03230334,0.03754528,0.03752815,0.03718841,0.03737365,0.04582482,0.02855357,0.02963493,0.02541173,0.03056254,0.02657003,0.01969308,0.01791592,0.02396018,0.01492133,0.00372028,0.01603954,0.01665902,0.02580020,0.01687678,0.02789854,0.02450305,0.02444393,0.01996277,0.02667334,0.03708886,0.01829784,0.00873796,0.03584330,0.03519745,0.03420858,0.02506285,0.02716406,0.02719871,0.02508185,0.04070027,0.04980258,0.05552597,0.06085682,0.05935563,0.06580618,0.09906340,0.12982481,0.15220953,0.16236655,0.20637607,0.25935164,0.29498811,0.31068591,0.34769375,0.39635700,0.39590931,0.42110094,0.48444278,0.47820262,0.50527622,0.56086321,0.55309504,0.54326242,0.50364201,0.50037748,0.46465712,0.43591040,0.37323144,0.31996641,0.23657048,0.21865562,0.16512079,0.13901852,0.12253415,0.10602836,0.11225924,0.09419068,0.09305072,0.09625602,0.10978314,0.12935862,0.10574958,0.10954019,0.08696963,0.07262790,0.07695857,0.08084823,0.06862178,0.05911022,0.06438801,0.07911062,0.08164134,0.08289320,0.12541713,0.11923712,0.17228314,0.17133201,0.21295776,0.20358898,0.20976806,0.23668102,0.16840322,0.19695732,0.20159628,0.17430362,0.16082481,0.13084914,0.13876882,0.09467466,0.10311881,0.11102433,0.11150924,0.09747475,0.12410508,0.12902292,0.15791109,0.17067693,0.21549536,0.23890876,0.22478738,0.24280470,0.22019203,0.20242215,0.17665913,0.12264091,0.11828494,0.10026162,0.05197841,0.06972199,0.04233709,0.05409338,0.04757025,0.03327836,0.06918089,0.04668128,0.05549943,0.05823236,0.06659983,0.04882692,0.08386225,0.10749368,0.09762880,0.10939335,0.13336971,0.15816569,0.15593168,0.18230662,0.19681007,0.22815537,0.23953970,0.24000376,0.23296158,0.23634187,0.22333722,0.23304309,0.22225783,0.21228715,0.17867141,0.15643312,0.16914903,0.16118001,0.12403474,0.15344463,0.14962249,0.17510154,0.18055848,0.20074616,0.23930667,0.25058226,0.31022006,0.33583276,0.38119188,0.41439570,0.46176339,0.49295694,0.55272101,0.54484220,0.61460189,0.64539948,0.62373809,0.64188007,0.63357327,0.63048730,0.57970462,0.56248187,0.47531460,0.44629555,0.42660644,0.37960512,0.31420689,0.28973165,0.27436684,0.28576787,0.23701611,0.24742187,0.27609144,0.27265886,0.25873163,0.27987481,0.26955362,0.27053052,0.26754100,0.24359177,0.20225599,0.18059284,0.17363382,0.15807852,0.14741363,0.15319470,0.15062899,0.16384939,0.16213783,0.21107846,0.27202557,0.30130329,0.33153865,0.37504503,0.41648566,0.48511436,0.46686105,0.49485098,0.49937059,0.48661166,0.48185296,0.45885697,0.44065956,0.39689576,0.39866075,0.37683040,0.36886387,0.38332207,0.36770748,0.31597448,0.27903806,0.24425346,0.21923893,0.19483473,0.16457748,0.12514270,0.08770666,0.08375080,0.08395707,0.05255684,0.06686655,0.05491547,0.05901732,0.05051636,0.07334557,0.05215092,0.07712541,0.07160894,0.08279424,0.08316591,0.06136202,0.09734510,0.08095143,0.08400797,0.08571804,0.08862138,0.09697827,0.09216303,0.09015265,0.10355119,0.10081301,0.09860938
0.01617289,0.03226124,0.01621156,0.02094326,0.02501421,0.03798031,0.02241813,0.03110406,0.03465414,0.02689305,0.01208964,0.00260006,-0.00129077,0.01070865,0.02683216,0.01250473,0.01750195,0.00142380,0.01876171,0.01539769,0.02263695,0.00865586,0.00641532,0.03621624,0.01612854,0.02960879,0.02790100,0.05679963,0.04547810,0.05290427,0.03852125,0.04494203,0.03027846,0.02976561,0.03029509,0.03218058,0.03102151,0.03218448,0.05291942,0.06209830,0.07070987,0.06339392,0.08949572,0.06164209,0.07909564,0.06205956,0.06007270,0.05475169,0.04283788,0.04749319,0.04433550,0.03350372,0.03534842,0.02389512,0.05284857,0.02822817,0.02491599,0.02523508,0.03678003,0.03651260,0.04170426,0.05930601,0.04526176,0.04754747,0.06375569,0.04531148,0.04263557,0.05117890,0.03913370,0.06763781,0.05913796,0.05685194,0.06544179,0.05333025,0.07450128,0.08630753,0.08574997,0.08415458,0.10086229,0.11172955,0.12528710,0.14629984,0.16702438,0.19755028,0.21286312,0.25768058,0.28232497,0.33657478,0.33754809,0.39116921,0.40818685,0.45340428,0.47519501,0.45182871,0.48223273,0.46251073,0.50222376,0.50621082,0.43262594,0.43078849,0.42345209,0.40459312,0.34510382,0.34834615,0.28679350,0.25852710,0.20234417,0.18074059,0.14255494,0.14664165,0.12329044,0.11387467,0.13039940,0.10656606,0.11400266,0.11945702,0.10342348,0.10551149,0.09828582,0.10553635,0.10153471,0.10654886,0.10301348,0.09438483,0.10254821,0.10219704,0.08989200,0.11728029,0.08847067,0.11973765,0.12918705,0.14528140,0.16115070,0.17969851,0.17890478,0.18344116,0.19641871,0.20099137,0.18759108,0.18688393,0.19592941,0.20575853,0.18925256,0.19411035,0.19134272,0.19880715,0.16605775,0.16710184,0.17681336,0.17732426,0.18394504,0.18485283,0.20383854,0.23419434,0.24417816,0.23681806,0.27181069,0.27039214,0.25604240,0.22843296,0.20650747,0.16524366,0.17468484,0.14640481,0.14760823,0.13329970,0.12881184,0.12695260,0.13590226,0.11856391,0.12226346,0.13231280,0.14074666,0.12537854,0.15939234,0.16924288,0.16582916,0.16997231,0.21879623,0.22237847,0.26344172,0.30727274,0.32080224,0.33186871,0.37420229,0.41642977,0.46810175,0.45492103,0.44387862,0.43618826,0.46738683,0.41112319,0.39344522,0.39990899,0.35855409,0.31478988,0.29718208,0.30096873,0.27066569,0.25780213,0.22958698,0.22086178,0.22990730,0.25514726,0.26453410,0.26496688,0.27850876,0.29074075,0.30749206,0.34484426,0.37141162,0.40324146,0.41897374,0.44005901,0.45273192,0.47516736,0.50254806,0.51238134,0.49003841,0.49529106,0.47129314,0.46035846,0.44331491,0.39980203,0.40126421,0.35247884,0.33431828,0.29959871,0.27055019,0.25062036,0.28020538,0.24268331,0.24517640,0.25948455,0.26180284,0.24240132,0.26333462,0.27020444,0.24523795,0.22304800,0.24908623,0.21496280,0.21053104,0.22837666,0.18993949,0.19895715,0.19144683,0.21898883,0.21176104,0.22561779,0.29016299,0.28481197,0.32026495,0.36916921,0.40137800,0.44081798,0.45283656,0.46127283,0.47047453,0.45084428,0.44725816,0.45102170,0.42856474,0.42986766,0.39881842,0.41891145,0.41218456,0.43848390,0.41356060,0.38943801,0.38069539,0.37309679,0.33852770,0.28047628,0.27743133,0.25402838,0.22043075,0.21230472,0.21164827,0.17539290,0.15132887,0.20383903,0.20038881,0.18980933,0.18377981,0.18492164,0.20084488,0.23492545,0.21022686,0.21008164,0.19403988,0.22969890,0.22488721,0.22757520,0.24102882,0.25541572,0.26551025,0.24538061,0.24141121,0.26254779,0.24741162
0.08583492,0.12404906,0.10886825,0.12057989,0.12420280,0.11637721,0.12692937,0.13936641,0.13371867,0.13501959,0.10748161,0.10394383,0.11627563,0.09899112,0.10357530,0.11073636,0.10388890,0.10558488,0.10195860,0.10750253,0.09355892,0.10463903,0.11204229,0.12182255,0.13089663,0.11929119,0.14945196,0.15673026,0.15969662,0.16032152,0.14813498,0.15074564,0.15530741,0.16003632,0.15619453,0.16912082,0.18621542,0.23002237,0.24405164,0.26331316,0.25464788,0.28457607,0.28811905,0.29551004,0.27463976,0.27222936,0.23186076,0.21424805,0.19267913,0.17481831,0.15541317,0.16213318,0.13502836,0.12859095,0.14318985,0.16106576,0.14599969,0.14359885,0.13995435,0.15181140,0.14557476,0.15722973,0.14829553,0.15141763,0.16554640,0.14217045,0.14325811,0.15617576,0.15805739,0.15085214,0.15657380,0.17324284,0.16654744,0.21356524,0.22765620,0.24574676,0.27444414,0.30348949,0.29760462,0.29604811,0.30625747,0.26088183,0.25672871,0.24966517,0.25144115,0.27818080,0.28906318,0.29346446,0.33568924,0.34502018,0.36881414,0.38257680,0.43174226,0.44353263,0.46439157,0.47873776,0.53329821,0.55911049,0.58544680,0.55077380,0.55321524,0.57498024,0.50962028,0.48099853,0.46566326,0.39504870,0.36721889,0.33156808,0.26775459,0.25163431,0.22648173,0.24501258,0.21819840,0.22609516,0.22535445,0.21334803,0.20708950,0.23867123,0.21856162,0.23120039,0.20032980,0.20420590,0.20337279,0.19681923,0.23718038,0.21809929,0.24612684,0.24637892,0.27104862,0.29525945,0.29670821,0.32192051,0.34323887,0.35057614,0.37117608,0.41084844,0.41958440,0.44407449,0.47684090,0.48749172,0.51621660,0.52517030,0.54013116,0.54948816,0.54145519,0.50637824,0.52252595,0.44925058,0.46227264,0.44064523,0.46311809,0.41835072,0.42150925,0.43466990,0.42745254,0.42894310,0.41861314,0.42130676,0.39963821,0.37798411,0.34468745,0.32026722,0.30282174,0.26674509,0.25810843,0.27139288,0.27387892,0.27386983,0.24158089,0.26246161,0.26829693,0.25352099,0.28939689,0.26666659,0.28576463,0.26868261,0.26974517,0.31032701,0.30789957,0.31643377,0.30522881,0.33849787,0.35242920,0.37924040,0.37504445,0.40715088,0.38474608,0.41434069,0.42250711,0.44255074,0.42122405,0.41202752,0.39520997,0.40005187,0.37190579,0.37332153,0.36658587,0.36634028,0.35715275,0.34904990,0.38152885,0.38507389,0.42569564,0.40658519,0.40858604,0.48284828,0.49097120,0.51686380,0.55883040,0.56595223,0.60447351,0.63262071,0.61385760,0.66431217,0.70411583,0.69100089,0.74788519,0.69911837,0.69087556,0.65003759,0.61844855,0.60049026,0.57274256,0.55071859,0.50505098,0.50001821,0.46119255,0.43524008,0.43904069,0.42253865,0.42807906,0.43197849,0.44165227,0.45869673,0.47628361,0.47731177,0.50740378,0.46667975,0.48515954,0.46962065,0.45562793,0.43708869,0.42431187,0.39861312,0.38235016,0.38982172,0.37501633,0.39094614,0.38068313,0.40620792,0.45104597,0.48358674,0.54504886,0.57453222,0.62215829,0.68824976,0.70014767,0.75638292,0.79700803,0.81686225,0.84064532,0.85388448,0.81519048,0.83393412,0.85316867,0.80924906,0.82299669,0.80118500,0.78955339,0.74813933,0.73257393,0.68022028,0.62159781,0.56125111,0.54259909,0.50718892,0.43575413,0.40045209,0.39697621,0.34950871,0.36163025,0.35878468,0.38258253,0.38436994,0.36981415,0.35543699,0.40769129,0.39610969,0.37630427,0.38470427,0.39243067,0.40426562,0.38188940,0.39371342,0.38040153,0.42032190,0.41812811,0.40363671,0.41713824,0.43976131,0.42918048
0.01101256,0.01044660,0.01215557,0.01305460,-0.00356982,0.02721546,0.01608457,0.00293537,0.00787246,0.00230128,0.01289955,-0.00924120,-0.00397439,-0.01182959,-0.00109806,0.00709289,-0.02127366,-0.01736381,-0.00766544,0.00229920,-0.00642962,-0.01627586,-0.00607972,-0.00783230,0.00907948,0.00078370,0.02991403,0.03082239,0.01735023,0.01587415,0.02644864,0.01432382,0.01002992,0.02420046,0.02262198,0.02859709,0.05555236,0.08583389,0.08254409,0.09760889,0.13818308,0.12916799,0.13747603,0.12349640,0.10437113,0.10419182,0.08019719,0.06613595,0.04181236,0.04774658,0.01923558,0.00840335,0.00380855,0.00617229,0.01507835,0.01483802,0.00794968,0.00933595,-0.01256770,0.00020495,0.00819103,0.00945021,0.00924233,0.00173677,-0.00021726,0.01955981,-0.00332182,0.01429289,0.00431494,0.00970993,0.01804803,0.03118164,0.02280776,0.03998753,0.07055542,0.08351509,0.11377642,0.12567843,0.14395566,0.14855024,0.14277516,0.13747310,0.14257326,0.14778148,0.17159302,0.19666573,0.22338886,0.26402455,0.28747423,0.32293751,0.33059462,0.33868114,0.34265209,0.38024591,0.36915161,0.38185539,0.40747760,0.39349705,0.36552218,0.35292783,0.36165870,0.31184063,0.26789101,0.26623896,0.21985123,0.18367660,0.15975282,0.09517477,0.09893874,0.07558548,0.06421917,0.05323538,0.06906263,0.06567141,0.06467103,0.05231083,0.05380047,0.06068238,0.05231842,0.05088650,0.04079147,0.05725016,0.05108722,0.05035174,0.05907026,0.06887078,0.07075955,0.07183413,0.09227888,0.08959167,0.09216818,0.13346373,0.15445767,0.15893405,0.18235483,0.20946802,0.18802445,0.24677557,0.28678488,0.27122393,0.29928460,0.31381853,0.32549978,0.28408731,0.30614361,0.28868964,0.26774148,0.22183318,0.22462676,0.19336623,0.18407291,0.18864889,0.19391365,0.20112343,0.18551124,0.19352974,0.19584883,0.17746741,0.15489054,0.14429760,0.11775373,0.09155189,0.09339616,0.07012996,0.06567903,0.07159287,0.06163516,0.07569717,0.04544095,0.06049637,0.07497302,0.06783688,0.07127002,0.05443891,0.10951540,0.10537259,0.11832602,0.14085685,0.14034263,0.18552265,0.19012375,0.21497014,0.25270067,0.27670977,0.28726786,0.29792100,0.32361368,0.34303790,0.32172221,0.34072995,0.28043606,0.32754339,0.29748221,0.26855988,0.25366840,0.23688313,0.21134833,0.17731200,0.17777705,0.17917140,0.18318207,0.17048006,0.19749277,0.21752098,0.23959866,0.23475095,0.27263356,0.30760256,0.32979148,0.35219479,0.39052488,0.39728386,0.42911081,0.43716515,0.43381476,0.47220220,0.44578363,0.43088958,0.44474700,0.39844189,0.38044219,0.36219700,0.33531275,0.32014009,0.27482582,0.25273285,0.23483260,0.24211530,0.21357289,0.22530950,0.23878965,0.24202178,0.25182882,0.23484259,0.26324566,0.23678333,0.25891038,0.26709077,0.23355347,0.20985500,0.17192877,0.20081870,0.16865628,0.15886684,0.16850819,0.15217080,0.15527302,0.17759890,0.20012572,0.22557346,0.24541903,0.29140778,0.31225216,0.36987984,0.41872688,0.43665048,0.46665419,0.48891848,0.53188527,0.52849153,0.51671069,0.57341706,0.53575082,0.53034776,0.51295729,0.51200736,0.48722823,0.50405010,0.49175590,0.45703145,0.41364022,0.39611771,0.32152754,0.30002499,0.25946709,0.19318886,0.19311089,0.18183435,0.16150072,0.15601371,0.12882881,0.16423568,0.14523597,0.14902528,0.17035554,0.15111108,0.17340926,0.17947084,0.17912932,0.18045458,0.17811045,0.19721164,0.19872635,0.19041745,0.22831078,0.21477770,0.20856077,0.20226881,0.23884610,0.23030439,0.22716002
-0.03614835,-0.01874807,-0.02625841,-0.03345489,-0.01591999,-0.01057323,-0.00916960,-0.02061542,-0.01820746,-0.01226570,-0.04709925,-0.02834920,-0.04183761,-0.02669658,-0.04038144,-0.04451143,-0.03988167,-0.03914078,-0.04360746,-0.02743092,-0.03444634,-0.03719010,-0.02763747,-0.01694560,-0.01944374,0.00232726,-0.00589375,-0.00161977,0.00501470,-0.00094246,0.00153345,0.00257492,-0.00174584,-0.02285582,-0.02047210,-0.00641066,-0.00246717,-0.01028890,0.00422209,0.00731252,0.01958481,0.00974069,0.02100611,0.02943545,0.00730112,0.02355937,0.00751559,0.00048911,0.00669737,0.00004193,-0.02034996,-0.02647245,-0.00109361,-0.00205466,0.00829131,-0.00435786,-0.01965169,-0.01382340,-0.01064801,-0.01247463,0.00885871,0.00089985,0.00166786,-0.00356832,-0.00344360,-0.00346648,0.00523177,-0.00377143,0.00275008,0.01423780,0.01033866,0.00312784,0.00513430,0.04001110,0.03180045,0.02866566,0.04470988,0.04868432,0.08481543,0.08601247,0.10173513,0.10535140,0.13111862,0.15139796,0.17532226,0.22890445,0.27699669,0.32986519,0.36771957,0.39603929,0.44708634,0.44213538,0.48628008,0.44936852,0.47351442,0.41190811,0.39366086,0.37490152,0.36959608,0.34177459,0.32163291,0.30567580,0.26428678,0.24492517,0.21789356,0.18216242,0.16049026,0.14394302,0.12978429,0.11498814,0.12172927,0.12862552,0.14191640,0.16811341,0.16355205,0.20296358,0.19197122,0.20305501,0.18517823,0.16294039,0.14728266,0.12781253,0.11756828,0.10082320,0.09873879,0.07317730,0.08194475,0.11076639,0.08786299,0.10261088,0.11820490,0.11763248,0.14946496,0.15614001,0.16951067,0.18799174,0.19869182,0.18890985,0.21140261,0.19449112,0.18105165,0.20206271,0.19656515,0.17405517,0.15698437,0.15531401,0.15139128,0.14225123,0.13362114,0.11602531,0.12480939,0.10122310,0.09952874,0.09221188,0.10801884,0.12239368,0.09247907,0.10765834,0.09201779,0.11756758,0.10241974,0.06571207,0.10061328,0.07129425,0.07019282,0.06757284,0.04845899,0.08367849,0.08958603,0.07507112,0.09178392,0.08376678,0.10179433,0.09629050,0.10131220,0.09860997,0.13091983,0.13025680,0.13164889,0.15567153,0.18669577,0.19986006,0.20026717,0.24878535,0.24320611,0.27107440,0.27690016,0.28737387,0.29582286,0.29158949,0.29620223,0.28501441,0.26584412,0.26450737,0.23973046,0.23012801,0.21667461,0.19848935,0.20792753,0.20930385,0.19805500,0.18328725,0.21209150,0.22455816,0.23758781,0.26954824,0.29797914,0.31600221,0.35811176,0.38375252,0.42012323,0.44798866,0.43784960,0.48872873,0.51550463,0.50942027,0.51616086,0.51539770,0.54389092,0.55043332,0.53390327,0.51631802,0.49892814,0.48354998,0.41572326,0.40359688,0.34962278,0.34575144,0.30709792,0.31378585,0.32374481,0.29400221,0.30491935,0.28725780,0.27420624,0.31494696,0.30544024,0.33066757,0.26050626,0.26518386,0.24788275,0.20812555,0.22916656,0.20755253,0.22324201,0.20834189,0.22602786,0.22550083,0.24950916,0.32198507,0.31738867,0.36697772,0.37330812,0.42697881,0.42619261,0.45562930,0.45713846,0.47374453,0.46920223,0.42762561,0.43400822,0.42034315,0.38552673,0.34746822,0.32430277,0.30528385,0.29353685,0.28295025,0.26748651,0.26925753,0.24189641,0.23709028,0.19992205,0.18673386,0.19207873,0.17226450,0.15475327,0.18896248,0.17231863,0.15349435,0.15914481,0.15740630,0.15523641,0.16078883,0.18067986,0.17094514,0.17500003,0.18879040,0.17672448,0.19936059,0.18449014,0.19767256,0.19635860,0.21014851,0.20799530,0.21430239,0.21649518,0.20712078,0.18953437,0.21925210,0.21586254
-0.06285821,-0.04229265,-0.06041006,-0.06703346,-0.05885983,-0.02858727,-0.04330321,-0.01313762,-0.03808442,-0.04652646,-0.04884978,-0.05208159,-0.05955263,-0.06601029,-0.07794290,-0.08066517,-0.06551413,-0.07132240,-0.06655547,-0.06452903,-0.06639246,-0.05040340,-0.07340761,-0.06246111,-0.05258453,-0.04707166,-0.02895036,-0.02622360,-0.01265117,-0.00875552,-0.00692510,-0.02652841,-0.03978663,-0.04498106,-0.06001632,-0.05198371,-0.05526220,-0.04077024,-0.03808802,-0.04347656,-0.04009684,-0.01543427,-0.03258851,-0.02716496,-0.03392102,-0.02310561,-0.03497488,-0.04495098,-0.03631687,-0.04495620,-0.04389131,-0.03788053,-0.03837513,-0.03823323,-0.05587131,-0.04791080,-0.04582168,-0.04595382,-0.05696902,-0.05367494,-0.04293933,-0.04768920,-0.04373506,-0.05754889,-0.05532306,-0.05779870,-0.03957408,-0.02423780,-0.03869139,-0.03064967,-0.05098822,-0.04700186,-0.00544889,-0.02858321,-0.02092483,-0.03802060,-0.02086592,-0.01058835,0.01024806,0.01147621,0.00804775,0.03189977,0.06283487,0.05070019,0.09524582,0.12237625,0.12273007,0.19804357,0.21973788,0.25162833,0.27105520,0.33671713,0.37047863,0.39798244,0.40653093,0.39781684,0.44605143,0.46507922,0.47557362,0.48197492,0.44697998,0.46717490,0.43993309,0.42463492,0.36073601,0.33419126,0.27394601,0.23560849,0.15573391,0.13938143,0.09034051,0.07744448,0.07004166,0.05826997,0.06993285,0.06197655,0.07545479,0.06369880,0.07205151,0.07059201,0.07231444,0.05456156,0.04617873,0.02646801,0.04254398,0.01259809,0.03861360,0.03973710,0.06334671,0.06476720,0.06838574,0.09315368,0.11460061,0.14586269,0.15592681,0.16900710,0.17866817,0.20340316,0.19833401,0.21537679,0.18143863,0.19063702,0.17779637,0.15495915,0.13637859,0.12204869,0.12739041,0.11629185,0.10294265,0.10267636,0.09235634,0.11343052,0.10307691,0.13830510,0.15598408,0.15091800,0.18434039,0.18692286,0.18900671,0.18067602,0.15511187,0.15071554,0.11716598,0.10836796,0.07521235,0.06126400,0.05899264,0.04347462,0.04870347,0.03182197,0.04527052,0.03465286,0.03850636,0.03323015,0.05624964,0.06359178,0.06742863,0.07550283,0.09527285,0.09031647,0.11715235,0.13632418,0.15606816,0.17591229,0.19062744,0.22430474,0.23731956,0.25138819,0.25198245,0.25609790,0.27949087,0.29036716,0.26657448,0.27239032,0.23843433,0.20960378,0.23215073,0.21609427,0.19627020,0.16671776,0.16922818,0.18748793,0.17430065,0.18904534,0.20179157,0.25597111,0.25579633,0.28513223,0.33757110,0.36902073,0.42379483,0.42082256,0.51486119,0.49818383,0.57697277,0.58521313,0.60221662,0.57924842,0.62608269,0.62678153,0.59097535,0.57573971,0.54320016,0.53142365,0.50468650,0.43924902,0.40668835,0.37293611,0.33502898,0.34292260,0.27405862,0.26984883,0.28260090,0.30371571,0.28621763,0.31991912,0.29723589,0.30644338,0.31699580,0.33021900,0.31802436,0.27266587,0.26521759,0.23718740,0.21169122,0.18933423,0.20247440,0.16688940,0.16502140,0.18616755,0.21547308,0.25058003,0.27573687,0.30162972,0.34659766,0.43419339,0.45502306,0.48989514,0.49975869,0.53064252,0.54309834,0.51844688,0.53506775,0.48502865,0.44830368,0.45198182,0.43959289,0.41099889,0.40972007,0.41295218,0.38119680,0.35271945,0.34408426,0.30044921,0.27692076,0.23752041,0.21156061,0.18638664,0.16422779,0.13988062,0.13095116,0.13772398,0.11936210,0.13189972,0.12963505,0.13934560,0.14179771,0.16074622,0.16906648,0.14691270,0.16114365,0.16419433,0.17519036,0.16839330,0.18269997,0.18085862,0.18385588,0.17917332,0.18926773,0.17739183,0.18849442
-0.07907850,-0.07051689,-0.05819478,-0.05509416,-0.07214235,-0.06099969,-0.06565972,-0.06827540,-0.06576455,-0.06929629,-0.06419029,-0.06869212,-0.07596394,-0.08252615,-0.09566319,-0.07610894,-0.08617682,-0.07570510,-0.07583161,-0.05964450,-0.07737450,-0.06604637,-0.07736183,-0.07191923,-0.04762972,-0.06833627,-0.04884969,-0.05134076,-0.03170832,-0.05562478,-0.03887794,-0.03899854,-0.04404734,-0.04595632,-0.01745919,0.00479131,0.02809570,0.06136794,0.09182847,0.11192509,0.12178732,0.11348931,0.14687989,0.14244210,0.10637360,0.08253909,0.05319438,0.02483465,-0.02047250,-0.02076876,-0.03109753,-0.02691522,-0.05047695,-0.03613683,-0.03255897,-0.06208327,-0.04595651,-0.05771579,-0.07129511,-0.05852430,-0.04752778,-0.06215466,-0.06965793,-0.04346151,-0.05514748,-0.05621950,-0.05328360,-0.04959618,-0.05263950,-0.05698219,-0.04012637,-0.02229334,0.00350376,0.01259172,0.04252285,0.08543277,0.10094121,0.12447376,0.12844417,0.12355778,0.11404237,0.09419846,0.07394403,0.08634745,0.10266838,0.12884649,0.15292745,0.19264648,0.20648636,0.22894133,0.25762712,0.28380725,0.29811532,0.28906786,0.31079599,0.33600307,0.33992648,0.32012507,0.34295229,0.33526507,0.27967168,0.24809586,0.22157347,0.18862048,0.15985403,0.10163829,0.09159176,0.05685040,0.03794426,0.04705964,0.04183188,0.03674625,0.04559492,0.05233378,0.05777812,0.04808791,0.06857183,0.04386027,0.04128269,0.01676195,0.02639853,0.01391512,-0.00067352,0.01598160,-0.02109811,-0.00238433,0.01550478,-0.00188051,0.02787942,0.06438955,0.05996403,0.06688905,0.10506619,0.10928026,0.16838841,0.19472996,0.20606651,0.21439932,0.28224095,0.28074115,0.32039442,0.32975241,0.32757557,0.33042548,0.33448127,0.30713937,0.30450238,0.28260541,0.23575115,0.20299820,0.18849090,0.18187304,0.16419813,0.16627803,0.14990867,0.13860056,0.14582396,0.12394610,0.09757486,0.08000283,0.05194370,0.02372511,0.02817425,0.02071466,0.00612733,-0.00138132,-0.00942853,-0.00245161,0.00079019,-0.00140742,0.00928966,0.01086527,0.00714673,-0.00196765,0.01071874,0.01959018,0.03536014,0.04779103,0.04035042,0.05409990,0.05865540,0.08071498,0.09177901,0.11693412,0.11199829,0.12444708,0.12342684,0.12576813,0.14766380,0.12477705,0.13510387,0.11839316,0.10152628,0.09301250,0.10028494,0.07786654,0.08975032,0.05620723,0.07748028,0.07706141,0.09513057,0.11622468,0.11636587,0.12858706,0.15417917,0.20139627,0.21186350,0.22562794,0.26483266,0.30097724,0.34286164,0.36340219,0.37500518,0.41052780,0.45650014,0.45447267,0.45600430,0.46081691,0.47831191,0.43380126,0.41250305,0.38553186,0.35735452,0.31924179,0.27927506,0.25500100,0.22035602,0.19147595,0.16177707,0.17035659,0.16417111,0.14546675,0.15828530,0.17583380,0.15460167,0.17837906,0.16631445,0.15212665,0.15449861,0.15308782,0.12355677,0.11268699,0.10418454,0.09519919,0.11651092,0.10431593,0.14562976,0.16256264,0.16329432,0.22003157,0.25505228,0.29801480,0.34169141,0.36841630,0.41197820,0.47260930,0.52377488,0.54879536,0.53121434,0.55528805,0.55901742,0.56511053,0.56055027,0.53692090,0.52743962,0.51567721,0.50730904,0.51724931,0.46630984,0.44439106,0.40647497,0.33500122,0.30707846,0.23728559,0.18853542,0.12507430,0.12400773,0.08486338,0.06529579,0.08941276,0.05267450,0.07650092,0.05410961,0.06503903,0.07553469,0.05648198,0.06294699,0.08426999,0.07536002,0.07937642,0.08781924,0.08107568,0.08609335,0.09793328,0.08388915,0.09992680,0.10097747,0.10350333,0.08534996,0.08985405,0.08781508
0.02811827,0.03737348,0.04699871,0.06161496,0.04688717,0.04177636,0.05313545,0.03787521,0.01363579,0.05294462,0.02928511,0.04639971,0.03559642,0.03171326,0.02911845,0.02467377,0.02061541,0.02833007,0.04289478,0.03800595,0.02985871,0.05222322,0.04416068,0.04404132,0.05959914,0.06387739,0.06862133,0.08400594,0.06979652,0.07879237,0.07371662,0.08900615,0.06404272,0.06807576,0.08201758,0.07795927,0.08421431,0.10570025,0.11006718,0.12640592,0.12321187,0.12621824,0.13472542,0.13773812,0.13282704,0.10979536,0.09342649,0.09200525,0.08772613,0.08607501,0.06915485,0.07085433,0.06094422,0.05711241,0.06719445,0.06343013,0.06066642,0.06873439,0.05819093,0.06614047,0.06662821,0.07432612,0.06769734,0.07363415,0.06396661,0.08375217,0.07630711,0.07804223,0.06655572,0.08566810,0.09542104,0.08633545,0.06917530,0.09794554,0.12233024,0.13117882,0.15572707,0.16359165,0.19132094,0.19099021,0.17907712,0.21728807,0.23027901,0.27384075,0.29503599,0.35193292,0.39302868,0.44821179,0.50108406,0.56751072,0.56495093,0.56362133,0.59465695,0.60959315,0.56772718,0.58257928,0.61751545,0.54846956,0.55227216,0.49402674,0.46616448,0.45665144,0.40635202,0.35887184,0.31401045,0.26690279,0.23973971,0.21186348,0.18986877,0.19626896,0.19982026,0.21259939,0.23204991,0.22065957,0.25592058,0.28738928,0.27221968,0.26023379,0.25893058,0.21560608,0.21058340,0.19503299,0.17111328,0.16015345,0.15472244,0.15431202,0.17016154,0.15873824,0.15930672,0.16164819,0.19218674,0.19879330,0.22803510,0.21646026,0.25960835,0.26238648,0.28824257,0.29642265,0.30309009,0.30925135,0.31790314,0.31092837,0.31064046,0.28920223,0.27622970,0.27341572,0.26625378,0.23701431,0.25927315,0.24800468,0.26283894,0.21966698,0.25266850,0.24703750,0.28517398,0.27252900,0.25266291,0.25818934,0.23276277,0.22555061,0.21742535,0.19546526,0.17792916,0.16168948,0.16578531,0.16144326,0.15904286,0.18761052,0.17826297,0.16054638,0.16450655,0.16581320,0.16632002,0.18937899,0.20676518,0.19943902,0.21005232,0.22652091,0.25987389,0.26521013,0.29218780,0.31489901,0.32429826,0.35279110,0.38382384,0.40265050,0.40353070,0.44140290,0.40139555,0.40641877,0.39744614,0.38394689,0.33956013,0.34133839,0.32966762,0.30470517,0.32726824,0.29198213,0.28318471,0.25894089,0.26429534,0.27694478,0.31414041,0.34554626,0.34628640,0.36869692,0.41396352,0.41020446,0.46008327,0.51739977,0.55859384,0.57836947,0.60898077,0.66364014,0.69346824,0.71968731,0.75767215,0.76397276,0.73377656,0.74040099,0.71681375,0.66545843,0.61226312,0.56666018,0.55108488,0.47531683,0.49268397,0.43868270,0.39517686,0.39510139,0.37630733,0.37655137,0.37285270,0.35920968,0.37481039,0.35746938,0.35963292,0.35430427,0.34616909,0.33215145,0.33181541,0.33815637,0.29430658,0.31681723,0.31629924,0.31508283,0.33515173,0.35154031,0.38511935,0.43507043,0.49275558,0.53778241,0.56573920,0.61131584,0.61981335,0.60717938,0.67103347,0.68740344,0.66289814,0.63812049,0.60527534,0.59378341,0.55487072,0.53129011,0.52970688,0.50601768,0.51683108,0.49270906,0.47522915,0.46087190,0.43704191,0.40076956,0.38435851,0.34486448,0.30013011,0.26690066,0.28767689,0.25696390,0.25655166,0.25420040,0.23988633,0.24809688,0.27931347,0.25579850,0.26324219,0.27135261,0.26608090,0.27474593,0.27197335,0.28910236,0.26619892,0.29898403,0.30409786,0.32848273,0.31577693,0.32784474,0.31425763,0.32075041,0.32591859,0.32723261,0.30705693
0.08713895,0.08112940,0.09253427,0.09653002,0.09533244,0.10907309,0.10456931,0.12024337,0.11918393,0.09253302,0.09028169,0.08777940,0.07367044,0.07783162,0.07204724,0.08009354,0.07935120,0.07750924,0.06068002,0.07446667,0.07861028,0.08716004,0.07713296,0.08347620,0.10040854,0.10201060,0.09653059,0.12800208,0.13198869,0.10598389,0.11600110,0.10408036,0.08788516,0.10814952,0.11787156,0.09036128,0.11885647,0.13659053,0.14830068,0.16180069,0.18446393,0.16821851,0.18048643,0.16827787,0.15091448,0.15807108,0.14779577,0.10293435,0.11784253,0.11095853,0.10036523,0.11048519,0.09885024,0.09074701,0.08075582,0.08365077,0.08522591,0.08458806,0.08562130,0.08686006,0.08315174,0.07954390,0.08947741,0.09947079,0.09684105,0.07509686,0.11494305,0.10398434,0.08298960,0.10100374,0.10080013,0.12237079,0.12807881,0.13423996,0.15820466,0.15168490,0.16937203,0.19601581,0.19796267,0.17659581,0.18624846,0.20564162,0.21268333,0.20655909,0.21987949,0.27820995,0.30711095,0.32194959,0.37491428,0.44856923,0.48585991,0.49798166,0.53824025,0.57916438,0.56988566,0.63190456,0.63076169,0.61959456,0.61852262,0.59563359,0.57666290,0.53533106,0.49855336,0.43018203,0.39135365,0.34956954,0.30467294,0.27369442,0.24318377,0.23153785,0.23587143,0.25332285,0.27175215,0.28188328,0.29203330,0.30249314,0.30713020,0.30379626,0.28474100,0.26506260,0.22826044,0.20130842,0.18513039,0.18938834,0.16489090,0.14622340,0.14940740,0.17087222,0.18342670,0.20453900,0.22343964,0.25323226,0.26230771,0.26885618,0.31172815,0.32637839,0.31548788,0.32789157,0.31785765,0.35894211,0.38188648,0.32032460,0.34174491,0.31865946,0.32515665,0.31927505,0.28051019,0.28447236,0.28496426,0.26200604,0.28908786,0.28884462,0.30735365,0.30182702,0.31414148,0.30592944,0.32506362,0.30875864,0.27370183,0.27651822,0.23740755,0.19888345,0.19657835,0.16323836,0.15999730,0.15349074,0.14497959,0.15736374,0.15283954,0.13577773,0.14465851,0.13594431,0.14706384,0.15541687,0.16210439,0.15669092,0.14604945,0.14220982,0.15502659,0.16259258,0.16614982,0.15251191,0.17235463,0.17199738,0.15410179,0.20117718,0.16963568,0.18799270,0.18491784,0.18879854,0.16669275,0.19044221,0.16951711,0.18339796,0.18082758,0.18754290,0.17360793,0.20009388,0.21024035,0.24237346,0.24927842,0.25534097,0.30209519,0.31793826,0.34250323,0.44456863,0.44313758,0.50232267,0.52604210,0.57423397,0.62925718,0.69404332,0.72802602,0.79310554,0.83326205,0.82812305,0.83141626,0.86158556,0.84875530,0.90998717,0.85757583,0.79559757,0.75702810,0.68530130,0.61021387,0.60825988,0.51489972,0.48202025,0.45309169,0.43668923,0.42142888,0.39007339,0.38931134,0.39278718,0.42020089,0.37573326,0.38520271,0.37257905,0.34414862,0.35567200,0.31077000,0.30211286,0.28349920,0.27814208,0.28261096,0.29017148,0.33102458,0.34757817,0.39855686,0.46310065,0.51832671,0.54672414,0.62601557,0.68130164,0.71047733,0.71633436,0.75610159,0.78048536,0.73112782,0.70556642,0.66187709,0.66614836,0.62248333,0.59914365,0.57446945,0.56440245,0.54864553,0.54033981,0.52589943,0.52232811,0.45343705,0.40363865,0.37913885,0.33514644,0.28864264,0.24095401,0.22235113,0.19609546,0.18324922,0.19948144,0.18695061,0.17528538,0.17809155,0.18263814,0.18064775,0.16835634,0.18071930,0.19423051,0.16381675,0.17644887,0.16476860,0.19530705,0.19434760,0.18774267,0.16055631,0.16673731,0.19735562,0.16924375,0.18495265,0.17535207,0.16320143
-0.08270172,-0.07401339,-0.04588344,-0.07351130,-0.06372002,-0.05433155,-0.05458392,-0.06614914,-0.06421232,-0.07855026,-0.06240398,-0.07728991,-0.09364963,-0.10427441,-0.11082731,-0.09148675,-0.07854702,-0.10922115,-0.08831529,-0.10682936,-0.09572192,-0.09267548,-0.07790345,-0.07336880,-0.06203092,-0.08054851,-0.03864156,-0.05326867,-0.04428464,-0.05855012,-0.03489959,-0.05815060,-0.06063238,-0.06035692,-0.07712760,-0.04839091,-0.04467399,-0.04145590,-0.00541866,-0.00829670,0.01304279,0.02391210,0.01975056,0.03231177,0.00933017,-0.00384621,-0.01657226,-0.03452331,-0.03103292,-0.05642143,-0.05274223,-0.06104196,-0.06166040,-0.05765347,-0.08062187,-0.06468426,-0.09011375,-0.06843401,-0.08275846,-0.05806242,-0.06686382,-0.06998348,-0.06007953,-0.07395772,-0.05029755,-0.04620486,-0.05659486,-0.06459431,-0.04652074,-0.05145942,-0.04323203,-0.04412656,-0.04441977,-0.02676089,-0.01526256,-0.00182573,0.02461279,0.02162297,0.05096582,0.04601940,0.03182305,0.05617877,0.06658049,0.09370915,0.10873957,0.13609285,0.18003230,0.22589751,0.27477080,0.29768511,0.31825177,0.35259940,0.36340468,0.38272344,0.35098314,0.34140869,0.32182619,0.28617405,0.28934929,0.27430335,0.24016126,0.24483953,0.22127542,0.18352893,0.16384557,0.14219761,0.12825689,0.08525012,0.07354129,0.08619489,0.07253384,0.07904727,0.10391438,0.12078585,0.15594483,0.17648985,0.16475731,0.17146248,0.14131987,0.11543024,0.09170539,0.07979650,0.04812939,0.03348471,0.03058688,0.02455071,0.01350287,0.02588233,0.02503256,0.03945849,0.05294991,0.06762527,0.08757581,0.12304160,0.12391757,0.15251556,0.17908761,0.19470456,0.17478738,0.20137700,0.19658766,0.21409120,0.20623883,0.18589065,0.18460412,0.17044783,0.16983135,0.13597568,0.11669608,0.10788606,0.07129331,0.06493488,0.04917537,0.03661646,0.02638586,0.01315738,0.03322656,0.02881512,0.01701963,0.01793765,-0.00248596,0.01476910,-0.00690190,-0.00467477,0.00023257,-0.00030635,0.00425494,-0.00022222,0.00056318,0.01056390,0.00311035,-0.00232809,0.01721332,0.00338564,0.02643468,0.01634627,0.03326639,0.02582944,0.03963984,0.03923848,0.05208477,0.07338275,0.07368799,0.08733100,0.09597370,0.11912415,0.12265639,0.12997507,0.13292787,0.10789356,0.09466394,0.11465625,0.12184144,0.10721030,0.10810658,0.08451674,0.09322564,0.07863429,0.07563297,0.09981070,0.10124959,0.12282394,0.12895841,0.16287591,0.16833955,0.21599423,0.23607411,0.27087854,0.28426058,0.33535169,0.35959113,0.38705326,0.41697126,0.40168441,0.48486805,0.47473788,0.51447026,0.50945851,0.53677084,0.48688999,0.49094416,0.47915889,0.46969942,0.44496464,0.42592130,0.36425747,0.33039468,0.30425938,0.26633729,0.27230735,0.25648743,0.22206945,0.25609287,0.24354113,0.25231657,0.24875753,0.25802022,0.25896974,0.22979255,0.20221063,0.20616326,0.18021272,0.15470215,0.15221612,0.15287703,0.14383528,0.16541016,0.17039402,0.20051503,0.23718795,0.29374547,0.28033910,0.31266573,0.35376297,0.35541722,0.41816147,0.43496641,0.42227401,0.42821781,0.43369765,0.40464902,0.39382419,0.40796494,0.35223819,0.31173440,0.30711600,0.26662215,0.25569715,0.22983173,0.19905495,0.18102607,0.18679687,0.15927380,0.15755714,0.12953499,0.12578131,0.09781578,0.08665698,0.07466402,0.07304007,0.07456464,0.08774918,0.06119230,0.07071776,0.06626708,0.08360168,0.07231570,0.07572389,0.08010637,0.07156689,0.09279569,0.08646944,0.08811796,0.08741923,0.09981561,0.10181638,0.10782275,0.10478582,0.11291008,0.09305510,0.09289424
0.00575486,0.02320740,0.00788235,0.00606175,0.02611699,0.01201428,0.01413532,0.01084500,0.00445471,0.00712358,0.00676573,0.00657577,0.00448018,0.00955848,0.00149432,0.00922500,0.01029627,0.00430073,0.00004584,0.01423899,0.00505280,0.01143784,0.00673669,0.01401512,0.01454307,0.01496052,0.02864306,0.03345665,0.02545394,0.03118067,0.02944921,0.03341661,0.03811909,0.01043740,0.02387143,0.04107568,0.04023216,0.05828915,0.07511178,0.07209816,0.07699067,0.08887902,0.08665774,0.08543857,0.08399086,0.07452784,0.06581135,0.06042728,0.05402157,0.04308010,0.02793373,0.03058795,0.01760752,0.01800741,0.02704075,0.03580827,0.02321399,0.01291050,0.03071445,0.01862238,0.01123296,0.02804210,0.01841261,0.01577194,0.01950644,0.01680753,0.02359748,0.02274464,0.02156263,0.03571808,0.03143827,0.03609041,0.04765781,0.04544090,0.06995286,0.09522837,0.10331804,0.09199005,0.12103931,0.11842870,0.13959999,0.14790903,0.14251504,0.16025821,0.20422801,0.24101738,0.26374959,0.32609545,0.34327585,0.43204607,0.43397120,0.46745415,0.45946759,0.49556481,0.49464888,0.46523712,0.46855819,0.41756763,0.39115612,0.36762300,0.33737176,0.30521536,0.25409529,0.23395835,0.19587063,0.17913770,0.11674494,0.13828983,0.13328749,0.12890157,0.13498317,0.14035515,0.16323660,0.18803304,0.20360172,0.22085307,0.22990947,0.17821821,0.19523641,0.17119179,0.14164472,0.12913095,0.10278404,0.08404817,0.08834573,0.08923575,0.05851965,0.06696768,0.07208335,0.07200095,0.09609810,0.08785531,0.11856889,0.09670079,0.12827478,0.13820063,0.14362949,0.13069085,0.17721293,0.18611576,0.18077751,0.18956411,0.19999767,0.19904354,0.19703972,0.19885348,0.16473351,0.17025987,0.15503297,0.16895708,0.15610618,0.15894151,0.16120998,0.17956602,0.16370149,0.19852142,0.15282967,0.18245202,0.16967219,0.16122663,0.13576657,0.10894737,0.09372409,0.10279169,0.07895061,0.08793456,0.08230781,0.07097206,0.06128014,0.06558034,0.08680071,0.07037407,0.07995033,0.06747487,0.08720412,0.11097407,0.09467298,0.08889843,0.10306537,0.11735759,0.12262584,0.13156580,0.15990135,0.17464386,0.16981728,0.17089266,0.17869451,0.18160947,0.19022846,0.17044754,0.18378930,0.18579633,0.16603107,0.15304831,0.16033727,0.14777095,0.14860190,0.13765435,0.13023941,0.15134349,0.13111128,0.14950611,0.16821341,0.17310081,0.17202529,0.17018678,0.21662385,0.23403817,0.29034809,0.29744369,0.37489895,0.38941681,0.43275936,0.48481369,0.52770903,0.59893983,0.61293330,0.62749022,0.63043967,0.64990670,0.60039106,0.59138693,0.56173132,0.54444609,0.50179047,0.44233622,0.40504364,0.33314482,0.28634150,0.27438030,0.23977458,0.23503770,0.18552285,0.19700367,0.19158483,0.19941314,0.18546454,0.16682478,0.15999821,0.16370149,0.16672545,0.17977966,0.16572150,0.16888994,0.18265489,0.21817284,0.22922458,0.24932848,0.29633998,0.32803359,0.37070534,0.40667982,0.47331684,0.49176972,0.54802978,0.54801608,0.52527575,0.53730409,0.54202418,0.51084708,0.48393174,0.43565575,0.42747313,0.42305038,0.40273611,0.39436426,0.35237428,0.37949742,0.39863757,0.35972353,0.32852068,0.29324179,0.25736706,0.24938024,0.22364759,0.17888997,0.15759193,0.15378509,0.15511252,0.14885517,0.15199439,0.12563403,0.13368209,0.13437330,0.14630163,0.13806616,0.15124717,0.14233987,0.14521933,0.14838968,0.14961932,0.17092811,0.16002459,0.14457361,0.15656193,0.17601170,0.14960946,0.18422716,0.17841590,0.16140486,0.17612668
0.00889737,-0.00566964,0.02190413,0.01048774,0.01430044,0.03487440,0.03796721,0.01750575,0.02237628,0.02816705,0.00004484,0.00576382,-0.00680385,-0.02118389,-0.00665799,-0.01339255,-0.00622607,-0.01233622,0.00431427,0.00937773,-0.00848374,0.00723996,0.00220194,-0.00747248,0.00684306,0.02452727,0.03954892,0.03945652,0.03619298,0.03322524,0.03584226,0.01033604,0.01992789,0.01622975,0.01875635,0.03271340,0.04736216,0.06049635,0.06824178,0.08370282,0.08805248,0.09513967,0.08879552,0.10023494,0.07878220,0.07224604,0.06789918,0.04510302,0.03186573,0.02668164,0.02429282,0.01199980,0.02172312,-0.00047270,0.00206014,-0.00142945,0.00786274,0.01881014,-0.00279666,-0.00108230,0.02051557,0.01844478,0.00995991,0.01230996,0.00348776,0.02191765,0.00616455,0.02864061,0.01008306,0.04098630,0.02549538,0.00466009,0.01631000,0.05470617,0.05602418,0.06341203,0.07105033,0.10082149,0.09990582,0.10627667,0.09197067,0.08268873,0.10368457,0.10144858,0.10502923,0.12070511,0.13775345,0.17840248,0.22188308,0.25786914,0.26356551,0.29510036,0.32344053,0.36467563,0.39466109,0.43506396,0.44943289,0.47156462,0.45101379,0.47387104,0.43900147,0.41907849,0.37031129,0.34122609,0.27859539,0.22683196,0.18508102,0.13522541,0.11957169,0.10214581,0.11017861,0.09327719,0.11423458,0.12016596,0.11715164,0.13674950,0.12966406,0.12559201,0.10945137,0.10383826,0.08864289,0.07708138,0.05975726,0.07239734,0.07759479,0.08725230,0.06923353,0.07864126,0.09813046,0.09269832,0.11077293,0.11014063,0.15067404,0.17971460,0.18263226,0.19673356,0.20467785,0.23969894,0.24552011,0.22569734,0.24228782,0.25975598,0.25860076,0.25711277,0.22007260,0.22221127,0.20905976,0.20756559,0.19177217,0.18996375,0.20128308,0.19180231,0.22359324,0.23385956,0.22931332,0.24344293,0.24852994,0.23010755,0.19549468,0.18232215,0.14577739,0.11912499,0.09928465,0.10123718,0.07645751,0.07802584,0.04326787,0.06107051,0.07019440,0.06913576,0.06158189,0.07427524,0.07233984,0.08618388,0.06372069,0.07290892,0.06592156,0.07515844,0.07282313,0.08559733,0.09106170,0.08383152,0.08180985,0.10872791,0.08062112,0.08981181,0.11342399,0.09835370,0.10416873,0.11051907,0.10467573,0.10487344,0.09996255,0.12298349,0.10647938,0.13398182,0.12198398,0.11810133,0.13758460,0.14733117,0.15142510,0.17457385,0.21493811,0.21438518,0.25896718,0.28874710,0.30859651,0.35119410,0.38362696,0.44992487,0.48711424,0.51457481,0.59496704,0.58667086,0.62397549,0.67562614,0.67470941,0.65124836,0.65989929,0.63216982,0.61311017,0.56089878,0.50481063,0.46730961,0.44700924,0.36508844,0.34362160,0.31331854,0.29955880,0.29932279,0.27633528,0.27144108,0.25398035,0.26700655,0.25386052,0.25536726,0.23672096,0.27887858,0.22264005,0.23435697,0.21430773,0.19346420,0.20478948,0.19453330,0.19644733,0.17932766,0.21725919,0.24380360,0.26700420,0.32949746,0.35906490,0.39372849,0.46034282,0.53960665,0.56162611,0.62870543,0.60346114,0.57101875,0.60553273,0.60819130,0.59536556,0.57069249,0.55272349,0.54657373,0.52738989,0.53088446,0.54484353,0.52054167,0.50136443,0.44782124,0.44467657,0.35450186,0.31767962,0.26253828,0.21967977,0.20417179,0.17407562,0.14178184,0.15194158,0.13586221,0.13408772,0.12809197,0.15071361,0.12117027,0.14254765,0.12661465,0.12573234,0.13949198,0.13679202,0.12559196,0.12578913,0.14879841,0.14543635,0.14002614,0.13595938,0.13730731,0.13760233,0.16265446,0.14268537,0.13494527,0.14825821
0.04153540,0.05191548,0.05732674,0.06036009,0.08276861,0.08404856,0.08173788,0.07283555,0.08577012,0.07251767,0.06148210,0.03641232,0.05932950,0.03065424,0.02562267,0.02066562,0.03842823,0.03526741,0.02960576,0.03186135,0.05275085,0.05021135,0.04381058,0.05989330,0.08589631,0.10350604,0.13199400,0.12435738,0.12755068,0.11298154,0.12400623,0.11511691,0.08907424,0.09574740,0.09936291,0.09244373,0.10360305,0.10371449,0.13496361,0.17410072,0.17716189,0.17055081,0.18928516,0.19254284,0.15507532,0.14652481,0.12403094,0.12650120,0.09775088,0.10446883,0.08156818,0.07693843,0.10557662,0.08018503,0.07447314,0.08160774,0.09178453,0.08275416,0.06670428,0.07278253,0.08121816,0.08322142,0.08179215,0.09347367,0.09264428,0.08900697,0.07715487,0.09257567,0.10498635,0.11385619,0.10515031,0.12581936,0.13901871,0.14697578,0.15902308,0.18113737,0.19995740,0.21693881,0.20014500,0.21510006,0.22108437,0.21928881,0.22851845,0.24959736,0.25783144,0.27139178,0.31527365,0.30580810,0.36088964,0.36639383,0.40025233,0.46259669,0.46543284,0.51061215,0.49099933,0.55295661,0.56353193,0.59907772,0.63311620,0.65431074,0.64993156,0.64999204,0.59929972,0.53563990,0.50459290,0.43934210,0.41083136,0.35792833,0.29921685,0.26278653,0.24532334,0.25746594,0.24154954,0.25831373,0.25079607,0.24463888,0.26103561,0.26454339,0.24325851,0.21267797,0.21616138,0.20479082,0.21755110,0.20120775,0.20175286,0.22097533,0.23740755,0.26129102,0.30063235,0.33237433,0.33938483,0.39500366,0.41509036,0.45629398,0.47945574,0.51853703,0.51560221,0.52179598,0.55425150,0.49806570,0.53066753,0.50610108,0.50588016,0.46146063,0.45082281,0.41087346,0.37413106,0.36772884,0.32774429,0.34870852,0.31011637,0.31060493,0.32211554,0.32730412,0.33666165,0.32112051,0.33004400,0.30350388,0.26987644,0.27987394,0.25018111,0.21947306,0.20207433,0.23728572,0.22077003,0.22358810,0.21426512,0.21273197,0.22095224,0.21418109,0.21551962,0.21008877,0.22649443,0.22912717,0.23978421,0.23389602,0.22992743,0.23162792,0.26176670,0.25809039,0.29025983,0.30721660,0.31382106,0.31418327,0.34765900,0.31747864,0.34753635,0.36940314,0.36665522,0.35670223,0.35237729,0.33758784,0.34393583,0.33021168,0.33399791,0.36059737,0.33627362,0.36129564,0.36337418,0.37606631,0.42681953,0.45495299,0.51560746,0.54555604,0.58396945,0.61377665,0.64251153,0.74840622,0.76879055,0.76379478,0.82794630,0.83099534,0.85314099,0.86508880,0.86661677,0.84378428,0.80027784,0.79546612,0.78219337,0.76120790,0.70750412,0.67166697,0.64656125,0.58556958,0.55391765,0.53679291,0.50076355,0.52766861,0.51665682,0.55835749,0.54466071,0.58862746,0.59647821,0.64065013,0.65936042,0.65738311,0.63593783,0.62752285,0.63371284,0.58577314,0.52597481,0.48768579,0.45676837,0.42069299,0.42232454,0.41725708,0.42054232,0.41931744,0.43859334,0.45658127,0.51067972,0.52838384,0.57149449,0.66025229,0.69236048,0.75549252,0.75160818,0.76114604,0.78302856,0.83104879,0.83537854,0.81898076,0.73686576,0.73587104,0.68315412,0.66376618,0.65729623,0.61845320,0.61660719,0.55314144,0.53169257,0.56223878,0.45623266,0.43580091,0.40921733,0.35449944,0.33597543,0.35009845,0.33125223,0.33958020,0.31532068,0.32551282,0.34835786,0.33737244,0.31237332,0.34909250,0.36517321,0.33499636,0.32936378,0.34796595,0.33114117,0.35465318,0.34936815,0.34406715,0.34055208,0.37686883,0.35033749,0.37036478,0.36215601,0.37205273,0.37933101
-0.02877741,-0.02404414,-0.03408201,-0.05210671,-0.03278057,-0.03559709,-0.02315378,-0.02200464,-0.05921826,-0.04065459,-0.02609930,-0.03578237,-0.02697320,-0.02825474,-0.03229760,-0.03171465,-0.03955112,-0.04130150,-0.04641969,-0.04963843,-0.04391856,-0.04354918,-0.03482985,-0.01022624,-0.03801708,-0.01404814,-0.02094159,-0.02718217,-0.01368702,-0.00874794,-0.01077716,-0.00350307,-0.00195257,-0.01237760,0.00541070,0.01556302,0.01933788,0.03977335,0.08697962,0.09580984,0.09924098,0.12924993,0.14832467,0.13640214,0.09650667,0.10628075,0.09448359,0.07316175,0.04532084,0.01991435,0.01205408,-0.00271848,-0.02360949,-0.00096837,-0.01429694,-0.01424681,-0.01006631,-0.03087943,-0.01466583,-0.02934903,-0.00511993,-0.01054123,-0.01589434,-0.01994903,-0.03286991,-0.01441490,-0.01847554,0.00665941,-0.01276476,-0.01001819,0.00198080,0.02233517,0.01842284,0.04427208,0.05239129,0.05635106,0.09209054,0.11789979,0.14806524,0.14722522,0.13681685,0.14551878,0.14656884,0.16905148,0.16613340,0.21915395,0.27625232,0.30988538,0.35381280,0.41345349,0.39649299,0.43077649,0.49921799,0.47039575,0.46406164,0.44396703,0.41551869,0.38436616,0.35118790,0.28651568,0.26642400,0.19645892,0.18300145,0.15900032,0.11132004,0.10718975,0.07691172,0.06655336,0.07398978,0.09038601,0.10460830,0.12442873,0.15653537,0.19563680,0.20155219,0.19592804,0.20840400,0.21927150,0.20345885,0.17843475,0.14261375,0.12458962,0.08356169,0.06019304,0.05937877,0.03682292,0.04715102,0.04851837,0.02435717,0.02894957,0.03852349,0.06326305,0.05408070,0.07624977,0.10324064,0.08407028,0.11684654,0.15357133,0.15930247,0.21117743,0.23997693,0.24548837,0.25689241,0.25065141,0.27328322,0.26473035,0.24360855,0.21214156,0.22396325,0.19318366,0.17223292,0.13763672,0.16330699,0.13097132,0.12604643,0.11655369,0.13109011,0.11556788,0.11668741,0.07326022,0.07575476,0.06312857,0.07010514,0.05216003,0.04905998,0.04188653,0.04099193,0.04446526,0.02797670,0.04275699,0.03238266,0.03500101,0.04395515,0.04953494,0.06008215,0.05062224,0.07349405,0.06872612,0.07412815,0.06443941,0.08824934,0.10382613,0.10607014,0.11317156,0.13477796,0.14337181,0.15776060,0.15067745,0.16443582,0.15931040,0.17365227,0.15953075,0.15589492,0.12357683,0.11279448,0.10940373,0.08379938,0.08645829,0.09852935,0.10017454,0.10878738,0.10298779,0.08920011,0.11692497,0.11420441,0.13645693,0.15200582,0.16119623,0.19887956,0.22950898,0.25904321,0.31485910,0.33911342,0.38652849,0.44581075,0.49141363,0.54253804,0.55715531,0.59110126,0.58480057,0.61909567,0.60698015,0.54054991,0.52260650,0.48434433,0.43326660,0.38523586,0.32513901,0.28976697,0.25481552,0.20158207,0.17913018,0.16424774,0.15119547,0.13551051,0.13600048,0.12049990,0.11858469,0.11117717,0.10919671,0.11913232,0.11204695,0.09331665,0.12099689,0.12366519,0.17604591,0.18075863,0.20356591,0.23867529,0.28431786,0.32245467,0.37366631,0.40899261,0.45214735,0.47979441,0.49442537,0.51090057,0.55384209,0.50329914,0.48335651,0.49576194,0.48751763,0.48901886,0.44983745,0.41849498,0.38709286,0.40285416,0.36542227,0.39140886,0.35999809,0.33279625,0.31852890,0.27050372,0.25444676,0.18228009,0.16258762,0.14003709,0.13294004,0.11424666,0.08888455,0.07555762,0.09483577,0.10450855,0.07478569,0.08086062,0.09094039,0.11612677,0.08012984,0.10199936,0.09586136,0.09536756,0.09860191,0.10582583,0.09834429,0.10891123,0.11021446,0.11534233,0.11263962,0.10921458,0.11923363,0.11545753
0.08850243,0.09464166,0.09320518,0.11447492,0.08901715,0.10752573,0.09666656,0.08386399,0.08885134,0.07898959,0.06262223,0.06996681,0.07030889,0.06408813,0.07824927,0.05318157,0.07414600,0.06337751,0.05190708,0.06036938,0.06780626,0.07541588,0.06112395,0.08394795,0.09487288,0.11370737,0.11164314,0.10510102,0.11899855,0.11903718,0.09791106,0.07895868,0.08440096,0.07729209,0.07683220,0.06303346,0.06681652,0.08370431,0.07501766,0.05898963,0.07152862,0.05431382,0.06725233,0.06627369,0.06700340,0.07618847,0.06383669,0.05415437,0.07576599,0.09589423,0.07062206,0.07664110,0.07543577,0.05753770,0.07333089,0.07004854,0.06579358,0.07776646,0.06942764,0.05340358,0.07022519,0.04750463,0.06287362,0.06354723,0.06424374,0.05628091,0.07779715,0.08410425,0.07922708,0.07955054,0.09008323,0.06243305,0.08152612,0.06394200,0.07351757,0.07666744,0.08767729,0.07976417,0.10083103,0.08723502,0.09662445,0.09925372,0.10280993,0.11586902,0.12951172,0.15851290,0.17432020,0.18451163,0.22813544,0.25433869,0.29678607,0.35762009,0.39803031,0.47136646,0.50165765,0.55515186,0.61587870,0.62505392,0.65812009,0.61720875,0.61053752,0.55770982,0.49004259,0.44899252,0.37523237,0.29341253,0.23746551,0.21554401,0.16154853,0.13464613,0.13123675,0.13614195,0.10881649,0.11506400,0.12100897,0.09825145,0.11613589,0.10265458,0.09721514,0.10105135,0.09909181,0.09570452,0.08679527,0.09103902,0.08904407,0.10020183,0.11021358,0.12393390,0.15054601,0.15913389,0.17706996,0.19580734,0.20198784,0.23604400,0.22131375,0.25492590,0.23980816,0.24131636,0.23593826,0.20823142,0.17471352,0.16082135,0.15728155,0.14401214,0.11255131,0.12964669,0.11218989,0.13543219,0.14356687,0.18750860,0.20186338,0.27871511,0.30313394,0.38251190,0.36912232,0.37313733,0.35149275,0.31006257,0.29305155,0.25464315,0.21501619,0.15486401,0.15306072,0.11932114,0.10651950,0.09882324,0.08708519,0.09413638,0.07166933,0.07872689,0.08915005,0.08835998,0.08635570,0.09165810,0.10452368,0.09047000,0.09528586,0.10540305,0.11113636,0.10424850,0.11516148,0.12810844,0.11870677,0.14396937,0.12975526,0.13663528,0.15358026,0.15706007,0.14895191,0.13023661,0.13036404,0.12733069,0.13622962,0.13929121,0.12569503,0.14176460,0.14306801,0.14657204,0.15589945,0.15036959,0.18781948,0.22428062,0.23307295,0.25720524,0.32600645,0.34589938,0.39795055,0.43060535,0.49969500,0.55113704,0.60944014,0.62404923,0.70528025,0.66657403,0.73824101,0.74364549,0.71681640,0.74186664,0.67669580,0.66608536,0.61896051,0.57098713,0.51162075,0.41538705,0.38000586,0.35258289,0.29096485,0.30424579,0.28177896,0.28349165,0.27657104,0.29719594,0.27604589,0.30128231,0.30765190,0.27661412,0.30732188,0.27958433,0.25027546,0.22676703,0.21965191,0.19908967,0.15152019,0.17172502,0.16151015,0.17016584,0.16675982,0.22542845,0.27077562,0.31854203,0.37452308,0.41733407,0.49379746,0.52701377,0.58126610,0.60608964,0.60686708,0.62138994,0.55857211,0.51982973,0.53609793,0.48958523,0.46841153,0.48998059,0.49026780,0.45799588,0.47078056,0.47342379,0.46226248,0.38586159,0.36528340,0.30077830,0.23938374,0.17974046,0.15888436,0.13179232,0.11935738,0.09412891,0.09128653,0.09638103,0.09697097,0.06268378,0.06285062,0.07340751,0.08061431,0.09359944,0.05863241,0.07129103,0.08414694,0.07790101,0.08938882,0.08784913,0.10247460,0.08139346,0.08371460,0.09089922,0.08496296,0.09212586,0.08176890,0.09931479,0.09261723
0.11022122,0.10507709,0.12070501,0.11374734,0.10437790,0.08368837,0.09990113,0.09967094,0.08546504,0.08583417,0.11036260,0.09485028,0.08921249,0.11593751,0.09355298,0.09683742,0.10706465,0.09760546,0.10310091,0.07988535,0.09821660,0.08883734,0.08366455,0.08931450,0.09575592,0.09207635,0.08874161,0.09953390,0.10099749,0.10486644,0.09942619,0.10531387,0.11422514,0.10436102,0.13458466,0.14771705,0.18723698,0.19043858,0.22720288,0.27385229,0.29013370,0.32631883,0.32807652,0.35884722,0.34276663,0.31079081,0.27344163,0.22998735,0.20003845,0.18154564,0.11235002,0.12624374,0.10695611,0.11549864,0.08647071,0.07548576,0.08604457,0.07760308,0.09140550,0.08837156,0.08583782,0.10305597,0.07860518,0.08177387,0.08060080,0.07337089,0.08628428,0.09958363,0.06917701,0.08056337,0.10333301,0.09145782,0.10411613,0.15337708,0.13999311,0.19633879,0.24564431,0.23976477,0.27825064,0.30932785,0.28437279,0.23574464,0.22232295,0.20302662,0.17907756,0.17255621,0.19584419,0.18771660,0.22550385,0.23455630,0.24750931,0.27385474,0.30524758,0.34436138,0.35349216,0.40712449,0.41815716,0.43006629,0.43101525,0.42320083,0.42968416,0.36768559,0.35726253,0.30177471,0.27235022,0.20151450,0.19327899,0.15188698,0.13471835,0.10415003,0.09660706,0.09845636,0.08365564,0.08751903,0.09590703,0.08169594,0.08185053,0.09762150,0.08701158,0.08172458,0.07164290,0.09051405,0.07322623,0.08306072,0.06789542,0.06169869,0.07868000,0.08408420,0.07230233,0.07843772,0.07833053,0.08996781,0.10930596,0.12740769,0.15368708,0.17249400,0.20096865,0.23425646,0.25695891,0.31761073,0.34991722,0.41839037,0.45507442,0.47748169,0.48063416,0.50698391,0.47480296,0.43276766,0.40111863,0.36409107,0.36160123,0.32408184,0.32750294,0.30564902,0.31758451,0.30270313,0.31425704,0.29410128,0.28406650,0.23456538,0.22741682,0.18424278,0.17027925,0.14357578,0.09503704,0.09609623,0.07064441,0.07436933,0.07179170,0.05421090,0.08028559,0.08161057,0.06904093,0.06510020,0.06314107,0.06780185,0.07390484,0.07666505,0.08376019,0.08040260,0.10059070,0.10737112,0.12331194,0.13761620,0.14078729,0.15133357,0.16219994,0.16839820,0.14379745,0.16324288,0.14592720,0.15970526,0.15940116,0.15669247,0.11863963,0.13798079,0.11558069,0.12489600,0.11131282,0.09511164,0.10066033,0.10338913,0.09992904,0.13228480,0.12075254,0.13669527,0.15094850,0.16759367,0.16999497,0.22296963,0.25639560,0.27458222,0.30066518,0.37821105,0.39912667,0.41670859,0.45154147,0.46009180,0.46219917,0.47148265,0.49867603,0.45027253,0.41462522,0.38641961,0.35492486,0.29396240,0.23605325,0.22172886,0.19865987,0.17006762,0.13996396,0.13733349,0.11243895,0.10906292,0.10308345,0.10058138,0.09612095,0.09979789,0.08414079,0.09912137,0.10323661,0.09663796,0.08269158,0.08153099,0.08296152,0.07858190,0.09200232,0.11951140,0.12867699,0.15371320,0.17473776,0.24520094,0.27155204,0.35156468,0.42393284,0.41946333,0.49294654,0.52114009,0.60750967,0.62329299,0.66317017,0.61026529,0.66322542,0.64067379,0.68487547,0.65804600,0.68445013,0.71212593,0.67322208,0.64591911,0.65522441,0.59097124,0.53598639,0.43283638,0.36597873,0.31130163,0.20120175,0.17624819,0.13527067,0.10561629,0.09568294,0.07552838,0.05685366,0.07529310,0.07648770,0.07013334,0.07425318,0.07331444,0.07022617,0.07836820,0.06765392,0.07495898,0.07418851,0.07950853,0.06800613,0.07010382,0.07823797,0.08728162,0.07456522,0.09684265,0.07710620
0.06396584,0.05985445,0.05122058,0.04903856,0.07347809,0.06567499,0.06468682,0.06575889,0.07868630,0.07631020,0.08278605,0.06534693,0.03470012,0.08082567,0.06795985,0.05443288,0.03684313,0.06038516,0.06355724,0.06012041,0.07606382,0.04233570,0.06019562,0.07446942,0.07352197,0.08434514,0.08946166,0.08823860,0.09856808,0.09076035,0.10005699,0.07667729,0.07444877,0.07966117,0.09386939,0.06890754,0.07317336,0.10641732,0.08964421,0.08667408,0.09457385,0.11084667,0.10940567,0.11219039,0.08978228,0.08365931,0.09276747,0.08911978,0.08503417,0.08456197,0.09808787,0.09847626,0.08758329,0.10674957,0.07824005,0.09039999,0.10725213,0.09011490,0.08635849,0.10454372,0.11380688,0.12062963,0.11562262,0.08935667,0.10390712,0.11638068,0.10369351,0.10772915,0.11276437,0.11904371,0.10370420,0.11842234,0.10644757,0.12638370,0.12935864,0.13682524,0.13266932,0.16253840,0.14139961,0.16372201,0.18168488,0.19073664,0.20509120,0.26732485,0.26953617,0.29057799,0.36035739,0.39955340,0.43808433,0.48860886,0.54657017,0.56893241,0.61918226,0.63483860,0.70417623,0.68586243,0.68695774,0.70862788,0.71966021,0.69429022,0.66101717,0.60897887,0.58351164,0.49303563,0.42851760,0.38495614,0.30815635,0.28985233,0.25172245,0.23267760,0.23173327,0.24425889,0.22641059,0.23519884,0.26108062,0.25893358,0.28151758,0.28023203,0.27268967,0.25723250,0.23020098,0.21624558,0.21710924,0.21181333,0.18611470,0.17891077,0.18555329,0.18895866,0.20625228,0.20006032,0.21687101,0.22030771,0.23834095,0.23609463,0.24950158,0.28294225,0.25430089,0.25678380,0.27872021,0.25842451,0.25225234,0.26116306,0.27442881,0.24178642,0.25650988,0.21633641,0.21687840,0.24892405,0.23161834,0.27089479,0.26490006,0.30285259,0.34334447,0.34970371,0.37687402,0.41938024,0.43067991,0.43996696,0.43473075,0.39863606,0.34833727,0.33257357,0.30557630,0.27372799,0.24861009,0.23680583,0.21330674,0.20184191,0.20895503,0.22051511,0.20278261,0.22531220,0.21284257,0.20234702,0.20906434,0.23532374,0.26088912,0.26321639,0.26729497,0.28871344,0.29338949,0.31705521,0.34658716,0.38333837,0.38398704,0.40325836,0.41011076,0.40790273,0.42642199,0.43982999,0.45467590,0.43458588,0.44360391,0.37755492,0.39694202,0.38158259,0.32969787,0.30527831,0.30864947,0.33649991,0.31822698,0.31810880,0.32601042,0.33540480,0.36203382,0.39361642,0.42342339,0.43990020,0.49378236,0.54961475,0.58633944,0.63432381,0.67537974,0.73204465,0.81808193,0.88045892,0.86891732,0.88158247,0.95175442,0.93892826,0.93773071,0.89378273,0.83481537,0.77991697,0.69080466,0.69948130,0.63840901,0.57650544,0.51687772,0.46244906,0.48712861,0.43868170,0.41339965,0.41498999,0.41109006,0.40381373,0.38677826,0.40049006,0.39195931,0.35314706,0.37143530,0.35832775,0.33218487,0.34864670,0.33941416,0.34568021,0.37374125,0.38144005,0.44497676,0.46291761,0.52274537,0.57580028,0.62569845,0.67847064,0.73833803,0.77955467,0.79153627,0.84848828,0.81207449,0.77639957,0.76243279,0.70338424,0.71394142,0.68338800,0.66364491,0.63501498,0.63369696,0.63033948,0.63088525,0.63138524,0.57679449,0.56786103,0.55158149,0.50491329,0.45794215,0.39833227,0.38503998,0.34550212,0.33127720,0.33691394,0.32691304,0.29918481,0.30914159,0.33090666,0.32087871,0.33319708,0.30848787,0.33245242,0.36262034,0.33415359,0.33839757,0.36153862,0.33396078,0.35147798,0.35965451,0.36426400,0.35243586,0.36243909,0.37187664,0.39343422,0.40352377
-0.05084860,-0.03902606,-0.04792333,-0.04421694,-0.03791123,-0.04784940,-0.03103046,-0.04529806,-0.03742511,-0.05631753,-0.03398925,-0.04419726,-0.04606545,-0.03486199,-0.02908635,-0.03499899,-0.04240675,-0.02890091,-0.03874785,-0.03435589,-0.02589681,-0.02873409,-0.02984947,-0.02089456,-0.02888810,-0.01425106,-0.02925775,-0.01974916,-0.01749398,-0.01921250,-0.01292222,-0.01275486,-0.01300279,-0.00875423,0.00153731,0.00796030,0.02248531,0.04270518,0.03682101,0.07007636,0.11243613,0.11618961,0.11482168,0.10816302,0.10842412,0.10151149,0.08483347,0.08415831,0.05820572,0.03275817,0.02890141,0.01668320,-0.00355489,0.01033841,0.01273288,-0.00718616,-0.00422677,-0.00191188,0.00697042,0.00060535,-0.01075625,0.00601442,0.01716201,-0.00586846,0.00958256,-0.00128800,-0.00622645,0.00181666,0.00719641,0.01168624,0.01741864,0.02668146,0.02614367,0.04075382,0.05538022,0.07771729,0.08950384,0.11418660,0.13076658,0.12896809,0.12849844,0.12749847,0.11877735,0.13878706,0.16235868,0.21605226,0.23468899,0.28499575,0.29483042,0.34594451,0.41808349,0.44149638,0.44750464,0.52209765,0.53635439,0.54578456,0.56234011,0.54455612,0.52633381,0.49421545,0.47479260,0.41978688,0.33271710,0.29026841,0.23507234,0.21790331,0.17268671,0.15388803,0.11407863,0.12067463,0.11473210,0.14175485,0.14935427,0.19255167,0.19693394,0.25113216,0.25527742,0.24612548,0.22657377,0.19510723,0.18516218,0.16821281,0.13256709,0.12083943,0.09139247,0.09236432,0.07315812,0.06977384,0.05824697,0.06814112,0.06664212,0.07434124,0.09811625,0.08018724,0.10612847,0.11494103,0.13668887,0.12896985,0.16502341,0.19087043,0.21436211,0.23894112,0.23929897,0.26339923,0.27201095,0.28488325,0.26746566,0.27458006,0.23927415,0.23837211,0.23997715,0.24030145,0.24770608,0.27188455,0.27907527,0.28068545,0.28969646,0.29680463,0.28415210,0.27299728,0.23529655,0.19529632,0.16561770,0.14265965,0.11101692,0.10112853,0.10206850,0.09587558,0.07840246,0.08929704,0.09419613,0.10653459,0.08562896,0.09213978,0.10604245,0.08932929,0.09030480,0.10076995,0.08682335,0.08959910,0.11086316,0.11659579,0.10244962,0.12802245,0.13126520,0.13532197,0.11641495,0.11329376,0.14406218,0.13222994,0.13546513,0.13211339,0.13960161,0.13195411,0.14147063,0.12353001,0.11917299,0.12906510,0.12764067,0.12042639,0.11806692,0.12551966,0.14985841,0.13311434,0.14162389,0.18403314,0.17872299,0.21534024,0.27595237,0.29669134,0.32749158,0.38593731,0.44715708,0.51870451,0.59222255,0.64854556,0.74190431,0.75309947,0.84549089,0.86306108,0.84489845,0.85010844,0.83144548,0.80761571,0.75159789,0.69824223,0.61597618,0.51553046,0.44513001,0.40604113,0.34486179,0.29605341,0.28155244,0.21385687,0.19869481,0.18683656,0.21766989,0.19349411,0.17307097,0.16209954,0.15844444,0.14391912,0.18372392,0.16953505,0.16378026,0.19839358,0.21913797,0.25042099,0.31848179,0.34259342,0.42311509,0.45288758,0.55458316,0.62437405,0.64513142,0.71207581,0.74214916,0.73372628,0.70249743,0.74545988,0.74020097,0.68960746,0.66454122,0.65989172,0.61838643,0.58061345,0.59216754,0.59865685,0.61918728,0.60882313,0.55721669,0.54563045,0.46973824,0.44712867,0.39331337,0.35360465,0.29119948,0.26029144,0.22192979,0.21777599,0.17076809,0.15907123,0.16666319,0.15335918,0.15353824,0.16274340,0.16354890,0.17072258,0.17558119,0.17463645,0.18003045,0.17529213,0.17725198,0.19296933,0.15936656,0.18212970,0.16286641,0.17861532,0.19902460,0.18804867,0.20031345
0.06805243,0.06727075,0.06051165,0.07148155,0.09751380,0.09599841,0.09628654,0.08757186,0.08804842,0.06497912,0.08040088,0.05425899,0.05502603,0.04100431,0.04416663,0.04542004,0.01910383,0.04376630,0.03222129,0.05324590,0.04581758,0.05506541,0.05409423,0.05889982,0.06573113,0.07955926,0.11103460,0.12083590,0.11294442,0.10870555,0.09623755,0.08863269,0.08866782,0.07200232,0.08054778,0.09564781,0.09287709,0.10535539,0.14147247,0.18335980,0.17053884,0.18196201,0.18133742,0.19308517,0.17549700,0.16624541,0.12702089,0.13879726,0.09144472,0.06903003,0.07893078,0.07134374,0.06080257,0.05229337,0.06751746,0.05214322,0.06804271,0.04488023,0.06373727,0.06148878,0.05914326,0.05637372,0.07177830,0.07027244,0.06436848,0.06819438,0.05503651,0.07895382,0.07660380,0.07319135,0.06812250,0.07926647,0.09888959,0.09189373,0.12230584,0.16707399,0.17435680,0.17268499,0.20661435,0.21961489,0.21717886,0.17682387,0.18896917,0.17981619,0.18493391,0.21972640,0.21810704,0.25645937,0.27606858,0.31169991,0.33472438,0.34117184,0.34793079,0.39254547,0.37858547,0.39837039,0.39106424,0.42297631,0.42588175,0.45283895,0.43585311,0.45004598,0.41001569,0.40772655,0.35904191,0.34909672,0.28076721,0.24850687,0.21435596,0.19769881,0.17475543,0.17777024,0.16385450,0.16934798,0.17460707,0.17526887,0.18346244,0.17117332,0.17529539,0.16296973,0.15304657,0.15652229,0.15328976,0.14071208,0.12827161,0.13988450,0.15235534,0.16683078,0.16512545,0.19514324,0.24033717,0.26506379,0.31074862,0.31012176,0.37049203,0.34586699,0.41261183,0.39439913,0.41917778,0.44550196,0.44546482,0.42214313,0.40181753,0.42749995,0.40913345,0.40539996,0.36088485,0.33417665,0.30404054,0.29572922,0.25116807,0.22194262,0.22341931,0.19603490,0.18916740,0.21790534,0.20767372,0.18785551,0.19297190,0.16584458,0.16470765,0.17137326,0.15382385,0.13440944,0.14655384,0.12575647,0.13973440,0.14617174,0.14087172,0.13926308,0.14480486,0.14015136,0.13466007,0.17335186,0.13923585,0.17713833,0.17104638,0.17954323,0.18623110,0.19163582,0.23033343,0.21814693,0.26074836,0.25865633,0.24105815,0.26201773,0.27923015,0.28580195,0.28177019,0.25821048,0.27198997,0.26036524,0.27331774,0.27980561,0.26589223,0.23156296,0.25508964,0.26576411,0.26048108,0.27065734,0.29850474,0.31167774,0.33600253,0.36745297,0.39884834,0.43441792,0.46833856,0.48368140,0.53737062,0.56233722,0.60333166,0.62934463,0.61651958,0.61036161,0.66210117,0.62145083,0.59728682,0.54999202,0.58526551,0.55553183,0.52673608,0.47574286,0.46985315,0.44382410,0.43709041,0.37668479,0.39237728,0.36964932,0.37332678,0.36799425,0.40918466,0.42282951,0.41714863,0.44264010,0.45911809,0.45576051,0.49564497,0.48338336,0.47681077,0.43869829,0.43012336,0.37780747,0.36572141,0.33479615,0.29212610,0.32825988,0.27039875,0.31896091,0.32285749,0.33686566,0.36222518,0.37161150,0.41758546,0.47406057,0.46440703,0.50043403,0.56391632,0.59376453,0.62607580,0.65074542,0.69737975,0.62707958,0.64312362,0.59497628,0.60790663,0.58681797,0.52987381,0.51869351,0.49682662,0.49752114,0.47336827,0.43212115,0.39894225,0.38591356,0.35289907,0.31168592,0.28430697,0.30371217,0.25221801,0.25792122,0.24558839,0.26761290,0.25428392,0.24747382,0.24539091,0.25194896,0.26988208,0.26112395,0.26472265,0.25245921,0.29206973,0.25020521,0.26180364,0.26519061,0.28225055,0.29486783,0.28916826,0.30761028,0.29156006,0.28850477,0.28616961
-0.04677928,-0.03162116,-0.04892794,-0.03309239,-0.02100230,-0.04990680,-0.04651937,-0.04228178,-0.03916198,-0.03832038,-0.05401164,-0.04631749,-0.05986854,-0.05106376,-0.04952758,-0.04096282,-0.03763205,-0.05903074,-0.05248039,-0.05361893,-0.05077507,-0.04087635,-0.05669094,-0.04671094,-0.02566200,-0.02991296,-0.02534114,-0.02685362,-0.01710237,-0.02507227,-0.02419340,-0.02954209,-0.02905058,-0.02608759,-0.01335263,-0.00837764,0.03602490,0.03145619,0.05157081,0.07740990,0.08180646,0.10783621,0.10974707,0.10324393,0.12034209,0.08441749,0.06179657,0.03949269,0.01220492,0.02201371,-0.00537334,-0.02161943,-0.03211971,-0.02610727,-0.02883844,-0.03642541,-0.02950606,-0.02487082,-0.01906101,-0.01043595,-0.03131810,-0.02517615,-0.01887686,-0.02203418,-0.02699042,-0.02001101,-0.01253671,-0.01810642,-0.01618937,-0.01206048,-0.01367661,-0.00060047,-0.00032811,0.03534901,0.04627353,0.06864934,0.09635018,0.11453026,0.11833582,0.14018284,0.12611635,0.12511924,0.12760723,0.13792248,0.17306493,0.20537986,0.24403888,0.28271888,0.30373574,0.36045647,0.37794549,0.39109779,0.42750159,0.43985861,0.41599116,0.41872647,0.40149703,0.40392859,0.34967791,0.34394032,0.32272566,0.26044136,0.25611165,0.21011632,0.17964220,0.13842681,0.09298434,0.08628644,0.08496077,0.06508981,0.05569615,0.04358887,0.07774350,0.03748706,0.07837762,0.06807095,0.07957770,0.08130626,0.06335817,0.05752185,0.05402259,0.05534349,0.04830360,0.03706463,0.03356124,0.03118259,0.03537097,0.03054341,0.04522346,0.05638915,0.07001905,0.08508499,0.09724927,0.10795354,0.13227211,0.16284776,0.16650232,0.18843652,0.22897932,0.22434729,0.26170410,0.28516508,0.26912214,0.28229758,0.27483278,0.28762474,0.24656195,0.25084310,0.22368995,0.19859996,0.19307614,0.17915215,0.16839492,0.19740675,0.19455449,0.19223285,0.18777088,0.16961971,0.14936939,0.15553749,0.12146645,0.09099841,0.07175009,0.07727777,0.04181926,0.05557455,0.06276401,0.04801816,0.04889564,0.06206344,0.06856642,0.06169732,0.06406881,0.06159751,0.08749041,0.09449837,0.10151583,0.10713790,0.14981498,0.17045089,0.19669110,0.23159563,0.26011495,0.28997616,0.30571797,0.34425044,0.33276688,0.36919394,0.36009306,0.33885140,0.35619930,0.35488804,0.30382759,0.31069825,0.27548432,0.23374516,0.21078196,0.21565407,0.18235736,0.15987006,0.16268665,0.16394614,0.15264834,0.14915926,0.17462072,0.18673422,0.21139285,0.23061454,0.23413877,0.27948963,0.31017372,0.32270149,0.35323995,0.38332825,0.41186598,0.41699683,0.43642935,0.46267656,0.45669936,0.45614475,0.44454161,0.41228125,0.41165215,0.35122960,0.32078524,0.29429682,0.25797724,0.25643810,0.23376742,0.22177722,0.20414564,0.20447423,0.18680955,0.17609322,0.19071083,0.19445647,0.19040176,0.18095532,0.16430637,0.17058628,0.16217578,0.16092745,0.15587012,0.16889357,0.15244586,0.15594336,0.16412576,0.17260959,0.19625264,0.23252185,0.23653541,0.29045272,0.31818392,0.36223011,0.39112749,0.41674503,0.46911895,0.48273630,0.54485430,0.53341892,0.49380670,0.50381006,0.53256917,0.52091041,0.47925522,0.45061176,0.49749133,0.47845691,0.44976451,0.46010817,0.45627950,0.39474672,0.36095339,0.30852991,0.28712696,0.25087004,0.19461633,0.18201712,0.15987848,0.15154039,0.15086246,0.14380120,0.15089338,0.15692298,0.16352813,0.14769833,0.16335488,0.15524446,0.16847074,0.18206760,0.17171382,0.20422167,0.20601142,0.20633113,0.20985034,0.21566812,0.22540350,0.20542477,0.21952983,0.23749142,0.24979435
0.02745699,0.03705020,0.02822587,0.03958498,0.06011231,0.08407762,0.05511464,0.06613258,0.04476532,0.04727493,0.04281689,0.03334263,0.03676599,0.03305352,0.02357815,0.01408585,0.01666477,0.01908644,0.01516772,0.02126163,0.02170522,0.02607341,0.02543134,0.03859217,0.05506064,0.04616482,0.06918465,0.06356092,0.07535749,0.05783397,0.07167840,0.05041283,0.03995350,0.04576338,0.06033975,0.03671561,0.03625601,0.05380701,0.06109882,0.04404344,0.07808144,0.06258123,0.05413050,0.07337254,0.07537058,0.06348328,0.06188722,0.07213172,0.04634729,0.04884943,0.05032794,0.03583658,0.03249824,0.03103461,0.03138347,0.02974071,0.03630646,0.02347577,0.04628883,0.04317951,0.02860192,0.03905607,0.03619042,0.04650263,0.03953984,0.03787907,0.04969123,0.03611289,0.04211387,0.05448883,0.03443889,0.04163835,0.04794890,0.07764163,0.06825339,0.08183735,0.07940064,0.08208924,0.10180941,0.11254550,0.10349629,0.11914000,0.13660831,0.14007890,0.15179071,0.15646259,0.20410360,0.22651215,0.23866283,0.26197273,0.26230483,0.30341606,0.30707997,0.29947221,0.33237704,0.32684950,0.32553007,0.36630785,0.36672730,0.36616640,0.33957191,0.35081364,0.34418092,0.31985204,0.30507565,0.27566225,0.24172408,0.20817692,0.15613871,0.14753581,0.11765813,0.11458473,0.12192471,0.11459824,0.09922142,0.10287194,0.11611877,0.11985692,0.10579825,0.10803005,0.09777692,0.09787652,0.08640038,0.09449092,0.08908005,0.08839257,0.08646738,0.10413785,0.12069495,0.13685553,0.16735165,0.16895132,0.19376508,0.20435634,0.24481119,0.26988379,0.26987245,0.26206429,0.26071508,0.25584081,0.24773792,0.25166980,0.22296968,0.22289431,0.20455208,0.20758533,0.17839208,0.17291053,0.16504177,0.13460366,0.12458994,0.13211912,0.14045494,0.13241446,0.15619650,0.13501235,0.14536886,0.14807418,0.12655204,0.12320829,0.11576007,0.13573842,0.11355190,0.08997514,0.09797447,0.10436056,0.07403658,0.10711602,0.08282103,0.09566691,0.08541111,0.09380682,0.08826049,0.08518828,0.10454026,0.12028293,0.12105547,0.15133053,0.14811121,0.16510383,0.18794802,0.20229914,0.20496386,0.23093984,0.23772263,0.27141864,0.27183807,0.27900670,0.30405233,0.28673450,0.30432417,0.28025579,0.28547472,0.26387176,0.23046239,0.22375716,0.22862599,0.21237114,0.22013712,0.23071926,0.21233377,0.20167882,0.23881566,0.26455655,0.28072196,0.30509277,0.32727573,0.33931633,0.37617246,0.39025099,0.41372255,0.42264516,0.44209912,0.42266373,0.45241558,0.46508740,0.40200967,0.39898976,0.41378837,0.37179277,0.36172803,0.34101592,0.32138655,0.25844920,0.26494943,0.26484991,0.27671211,0.25889639,0.25979747,0.22690752,0.25652418,0.26816390,0.30925412,0.30838346,0.32342364,0.33186664,0.34241520,0.31817041,0.33227397,0.30866665,0.30225102,0.29258292,0.25153376,0.21705525,0.22252306,0.18739524,0.17040091,0.20210562,0.20866399,0.18319564,0.20431031,0.24941417,0.22547571,0.25394141,0.29320993,0.27622400,0.32788637,0.37668208,0.39095924,0.38686461,0.39568289,0.40926553,0.39505591,0.39215216,0.38444213,0.34220107,0.35101307,0.32181806,0.29340727,0.29271584,0.26377583,0.26456919,0.24722475,0.22526587,0.22540260,0.18031829,0.18653183,0.16609043,0.16758705,0.16557893,0.17288519,0.15881918,0.16939571,0.16874187,0.17367290,0.17187108,0.15703684,0.18858241,0.17982828,0.18973075,0.17878933,0.18259059,0.19313173,0.18931845,0.20074047,0.20974179,0.21052254,0.21873538,0.19100284,0.19844059,0.20982962
0.05298123,0.05716591,0.06649124,0.05486152,0.06129488,0.07122730,0.04534164,0.03852776,0.05567440,0.02198404,0.04612829,0.03449888,0.03351283,0.02278541,0.00885765,0.01149572,0.03482348,0.02944126,0.01439805,0.00720791,0.01109798,0.01409140,0.02208961,0.01832069,0.02483011,0.01918773,0.03075140,0.02906283,0.04013636,0.05188649,0.04291226,0.03732627,0.03834787,0.04797684,0.03840620,0.05050921,0.05363945,0.06524462,0.08506440,0.09748870,0.11898894,0.12449239,0.14460596,0.14456694,0.13197096,0.13138013,0.10741552,0.11109722,0.08482467,0.06385143,0.04763293,0.04450063,0.01109303,0.01048348,0.00280362,0.00740455,0.01822766,0.01663836,0.00557748,0.01052422,0.00303322,0.01935388,0.01609231,0.01384396,0.00968619,0.00619749,0.00281628,0.00106976,-0.00075673,0.01570145,0.02176890,0.00566971,0.02035689,0.02759542,0.02972836,0.07346853,0.07583649,0.11423915,0.10789872,0.13147576,0.14982966,0.13819591,0.15646652,0.16121579,0.16431879,0.19986738,0.24274134,0.28925613,0.30912871,0.35215920,0.33658051,0.37934990,0.37393542,0.39150293,0.37937512,0.37452206,0.35690484,0.33279371,0.27630862,0.27790940,0.25563693,0.22108308,0.21808824,0.19064369,0.18111986,0.14425524,0.12633836,0.11038422,0.08886425,0.07095781,0.06575150,0.05531080,0.05775177,0.04576351,0.05827928,0.06490441,0.07254498,0.07034025,0.04877972,0.05700018,0.05995217,0.05264085,0.04867276,0.03215688,0.02559821,0.02779918,0.02097630,0.01266428,0.04950923,0.03435852,0.06103304,0.05569072,0.06336771,0.09601552,0.10237289,0.10365067,0.12745946,0.13551283,0.17724961,0.16524712,0.20600066,0.22812692,0.21312927,0.24134039,0.24801683,0.23583120,0.24287048,0.23611715,0.22453261,0.19655220,0.16919959,0.15737214,0.12563507,0.09805874,0.09037058,0.09329141,0.08489073,0.08567045,0.05580751,0.05634740,0.06019391,0.04591872,0.03536083,0.03403414,0.02025154,0.02061783,0.01774140,0.01825115,0.03923374,0.04301355,0.03617545,0.01902137,0.03509648,0.04751644,0.03081044,0.04419748,0.06226637,0.07808175,0.08365462,0.12028494,0.14107424,0.16173383,0.19768352,0.21530579,0.25815787,0.30470096,0.29419518,0.33393419,0.37160613,0.38184421,0.37828937,0.38705062,0.34858577,0.33517239,0.29798509,0.28426433,0.24599076,0.23485636,0.17493718,0.18974329,0.15897963,0.13774793,0.13517761,0.12997143,0.14749762,0.13559342,0.15383449,0.16756935,0.15763999,0.19464278,0.19738616,0.22149844,0.23993346,0.24091236,0.27449355,0.26630350,0.27616181,0.24651340,0.27419269,0.27167125,0.28579131,0.26462705,0.27019900,0.25133868,0.21611462,0.19723609,0.20886000,0.18404292,0.18176625,0.17890301,0.17214756,0.15616546,0.15880376,0.15985731,0.15395604,0.16216083,0.17084104,0.17443637,0.15712986,0.15361495,0.13640905,0.14301181,0.16136773,0.10375572,0.11784059,0.10589786,0.10175817,0.10209766,0.10242874,0.11447376,0.13223235,0.14824117,0.15647070,0.18274847,0.19306665,0.22872600,0.25263855,0.26812555,0.28389307,0.31622269,0.32195707,0.37249851,0.38722750,0.37626491,0.38459030,0.37397468,0.37652868,0.35454322,0.33258428,0.29134737,0.30855643,0.31344190,0.31421457,0.27909822,0.23907178,0.20201260,0.16065041,0.16402443,0.14679970,0.13326663,0.12263660,0.10994578,0.12572717,0.11959444,0.11352151,0.10926397,0.12767334,0.12794009,0.13137664,0.15596406,0.14382330,0.16197579,0.17661238,0.14960107,0.18471522,0.18401959,0.19487376,0.19286677,0.17653819,0.20122657,0.20508875
-0.03556527,-0.04143895,-0.00179429,-0.02045876,-0.00403613,-0.00618711,0.01143371,-0.01049067,0.00702252,-0.00867235,-0.02847027,-0.03964590,-0.04101042,-0.05644434,-0.04081062,-0.04071849,-0.04908958,-0.06535186,-0.06434299,-0.04811123,-0.05121028,-0.03291647,-0.03887494,-0.01962148,-0.02896923,-0.00438835,0.01663828,0.01974052,0.00574360,0.01811916,0.01943586,0.01672030,0.00701788,-0.00220658,-0.01213415,0.01038871,0.02296863,0.05065522,0.07755340,0.11526420,0.13566308,0.12686795,0.15008799,0.15396747,0.14888429,0.12215055,0.09842079,0.08278054,0.03765400,0.01546365,0.00013300,-0.00840273,-0.01204855,-0.03813567,-0.02158873,-0.03056193,-0.03727593,-0.02379394,-0.03765549,-0.02030238,-0.03415608,-0.03719869,-0.03098491,-0.02721016,-0.04071159,-0.03632317,-0.04719050,-0.03353093,-0.04396809,-0.00911215,-0.03723855,-0.01840905,-0.00259301,0.01965901,0.04422164,0.06857466,0.10070732,0.12287142,0.12763056,0.14754840,0.12576249,0.12033953,0.10052334,0.08748496,0.08201202,0.09513613,0.11491449,0.11721573,0.13745808,0.16731160,0.16613575,0.23229497,0.23663555,0.24630256,0.29220902,0.30171527,0.32132715,0.37668737,0.38733659,0.39970124,0.43683027,0.40880158,0.42376945,0.38108234,0.32674431,0.28018946,0.25079367,0.17871484,0.13156816,0.09237546,0.08750412,0.05202309,0.05438384,0.03240923,0.05144007,0.03504674,0.05913070,0.04835926,0.03763401,0.03574295,0.04559675,0.04374839,0.01010789,0.01650305,0.02802081,0.03259654,0.03646327,0.05739657,0.06323830,0.09984807,0.11931752,0.17067952,0.18823732,0.23863580,0.28012687,0.29929940,0.30265472,0.38738135,0.36951810,0.40482359,0.40344873,0.41564577,0.42673288,0.40086026,0.40328507,0.36530372,0.36645610,0.30315545,0.29139919,0.22985290,0.20934890,0.16877867,0.18368997,0.17393383,0.16639248,0.15240731,0.14623732,0.12555997,0.11024311,0.10486405,0.06671051,0.05511087,0.03517689,0.04074174,0.01540337,0.02192706,0.02205846,0.02520169,-0.00090693,0.02925766,0.00515971,0.00904525,0.00860015,0.03153915,0.00772057,0.02066981,0.04092012,0.03329578,0.04916724,0.05309058,0.07431081,0.08404088,0.09407836,0.09980782,0.11206641,0.11838107,0.12380143,0.12929044,0.12776822,0.13664932,0.14648104,0.13068273,0.13500359,0.13616855,0.10799482,0.12117683,0.10849491,0.10887092,0.11147542,0.12287504,0.13299261,0.18013213,0.22422488,0.23092145,0.25648509,0.30717818,0.35896931,0.39687493,0.46009639,0.45488748,0.49178449,0.49762086,0.55136833,0.53977337,0.55776943,0.53720060,0.52933654,0.50922463,0.46170413,0.46659392,0.43177824,0.37872860,0.33149914,0.31723529,0.30002820,0.24742394,0.24071621,0.24349347,0.24421634,0.24832819,0.26298785,0.26634431,0.28045775,0.33030189,0.34086633,0.35835929,0.33972647,0.30693614,0.32927959,0.30179715,0.25820067,0.24541409,0.21743049,0.18454143,0.15789443,0.14284990,0.14175773,0.12459136,0.13134432,0.14293755,0.17201835,0.22466760,0.25312806,0.29331350,0.35064540,0.41794441,0.46603291,0.51946058,0.57297504,0.60991063,0.61937271,0.62127925,0.64224288,0.63883632,0.58128260,0.55452498,0.51439125,0.48976602,0.49091283,0.47044744,0.40127635,0.39663543,0.33711830,0.29951453,0.25656609,0.19573749,0.14273352,0.11671422,0.09026649,0.07246912,0.06526651,0.06377646,0.06087605,0.07329270,0.05085637,0.06027469,0.07608353,0.06295897,0.08251219,0.07929877,0.06969357,0.06944610,0.07552371,0.09100900,0.08573677,0.08438046,0.10140066,0.07176445,0.08561163,0.08646484,0.08193405
-0.12724330,-0.12643203,-0.12565777,-0.12882656,-0.14318016,-0.13595630,-0.13306307,-0.09921366,-0.13380362,-0.12751331,-0.12940204,-0.15704076,-0.13532947,-0.13194948,-0.13880016,-0.15117265,-0.14792063,-0.14695245,-0.12902838,-0.15202280,-0.13860845,-0.15870308,-0.13960315,-0.14677316,-0.13474075,-0.13446159,-0.12206936,-0.13234225,-0.11586451,-0.11849772,-0.13498353,-0.13732073,-0.11247584,-0.13094758,-0.09980394,-0.10111385,-0.08376279,-0.05042192,-0.02257141,-0.00636536,0.03202251,0.05027925,0.06041695,0.06516408,0.05630803,0.04227409,0.02251542,-0.01044981,-0.04403796,-0.07195130,-0.11038810,-0.11732174,-0.12378852,-0.12478449,-0.15295807,-0.15486520,-0.14569771,-0.13857294,-0.16342807,-0.15002779,-0.14909034,-0.15791856,-0.12993621,-0.14676230,-0.16488711,-0.15692790,-0.14497787,-0.15269519,-0.15468407,-0.15956896,-0.14346484,-0.14670822,-0.11232614,-0.13527481,-0.09081500,-0.05638333,-0.05020568,0.00246417,0.01745525,0.03807171,0.02803305,0.04700250,0.02380824,0.02618200,0.01281371,0.04253769,0.06073303,0.08523204,0.13515447,0.16642323,0.18052498,0.19098512,0.25270994,0.20886666,0.21324554,0.20311752,0.16094417,0.16038847,0.14272946,0.14088398,0.09463383,0.08457141,0.08152199,0.06485927,0.03992700,0.01793960,-0.01058708,-0.03593190,-0.04977424,-0.07367975,-0.09001000,-0.08150805,-0.09380444,-0.08886022,-0.05894740,-0.06251922,-0.06015556,-0.05529811,-0.05641782,-0.05778443,-0.06728407,-0.06666628,-0.10433523,-0.09658866,-0.12653900,-0.13003457,-0.12221126,-0.13525063,-0.10790163,-0.10082961,-0.07382036,-0.07824451,-0.07100532,-0.03897351,-0.01906905,-0.00068386,0.03975082,0.06733320,0.09606824,0.13405604,0.14910998,0.20964993,0.21210528,0.21708905,0.22633627,0.22701281,0.20076988,0.17050509,0.13305404,0.11516780,0.08058564,0.03126724,-0.00370440,-0.01550891,-0.03432525,-0.03192184,-0.06711002,-0.08299997,-0.09181698,-0.10137657,-0.10012177,-0.12597455,-0.13508790,-0.13825615,-0.10887243,-0.10969936,-0.14408583,-0.13383611,-0.14063992,-0.13519917,-0.15126218,-0.14555424,-0.12791204,-0.12250915,-0.13171728,-0.12981268,-0.11158071,-0.09556648,-0.08833397,-0.06251518,-0.04657271,-0.03338475,-0.00794860,0.02723617,0.04683204,0.05366200,0.09163407,0.13506540,0.10036972,0.13563577,0.12026515,0.12199887,0.08779718,0.08229966,0.07467868,0.03941266,0.02350544,0.01492781,-0.00819470,-0.03188815,-0.03553865,-0.02946419,-0.03749798,-0.01159450,-0.02416857,-0.00366939,0.01372682,0.03327184,0.04726280,0.06104411,0.08470211,0.10489045,0.13068053,0.12847493,0.16633768,0.17625530,0.17549131,0.18305866,0.16216762,0.17868839,0.17156562,0.16330806,0.14005178,0.12916104,0.09872513,0.08139433,0.07099744,0.04093246,0.03175222,0.01286561,0.02832105,0.01874014,-0.00783964,0.01103757,0.02054515,0.01955642,0.02721823,0.04576170,0.02992471,0.02567707,0.00576812,-0.01490289,-0.02614851,-0.04237791,-0.03659765,-0.05796998,-0.04946996,-0.05814087,-0.03375917,-0.03898123,-0.01221534,0.01316811,0.02749857,0.05577392,0.09858425,0.12145408,0.15372382,0.18194796,0.23983215,0.25741181,0.27463955,0.32481176,0.32858653,0.34949933,0.32046694,0.30345476,0.28706396,0.27058878,0.26726398,0.25466666,0.23541659,0.19488879,0.16878484,0.14010885,0.09282929,0.04457961,0.01691415,-0.00488626,-0.03235387,-0.05019963,-0.07425160,-0.08838782,-0.08307497,-0.07993803,-0.07221364,-0.07303533,-0.07884934,-0.07405179,-0.06907831,-0.05647710,-0.05836730,-0.04552130,-0.06291916,-0.04937685,-0.04032744,-0.02681385,-0.02047189,-0.03191316,-0.01800602,-0.02064628,-0.03095879
-0.08912342,-0.06101912,-0.08507843,-0.06836722,-0.08776016,-0.06732356,-0.07280227,-0.06253765,-0.06364606,-0.06244939,-0.08301660,-0.07982199,-0.08548617,-0.07437702,-0.07417431,-0.08877503,-0.08677436,-0.08735319,-0.09563546,-0.09799535,-0.09766553,-0.09888793,-0.06940186,-0.07726801,-0.06615598,-0.05788474,-0.04893319,-0.03306642,-0.04214376,-0.03027831,-0.02786976,-0.03397775,-0.06206078,-0.05603731,-0.06598461,-0.03562175,-0.04025967,-0.02475861,-0.02337453,0.01161203,0.02126892,0.02115844,0.03172920,0.01365224,0.00209199,0.02957019,0.00442230,0.00510833,-0.00844929,-0.02046197,-0.03627625,-0.02737787,-0.04375948,-0.02544577,-0.02681308,-0.05815456,-0.04182350,-0.03100787,-0.04026135,-0.04629364,-0.02848832,-0.02766101,-0.03914363,-0.03739092,-0.02929743,-0.02550525,-0.02226063,-0.03193574,-0.02635573,-0.02743808,-0.02353167,-0.02692659,-0.00300433,-0.01332855,0.01042024,0.01587645,0.04251630,0.04782253,0.06560057,0.07842565,0.10557795,0.07539539,0.10184719,0.08545272,0.12128744,0.13902461,0.15411648,0.20528501,0.22016700,0.25686571,0.27964756,0.32186299,0.31157499,0.32971999,0.33336059,0.36990848,0.36621411,0.36207787,0.38130847,0.36477124,0.37266577,0.33490930,0.29962207,0.28887891,0.27851654,0.23899985,0.19959225,0.15351673,0.12875001,0.09921688,0.08343393,0.06402112,0.08634326,0.08318462,0.07541765,0.09346806,0.08413966,0.08233935,0.09939776,0.08554828,0.06331877,0.05457894,0.05839932,0.06847634,0.05930391,0.06747517,0.07002198,0.05743330,0.06366656,0.09848750,0.10648327,0.11907526,0.14373278,0.14783342,0.17348084,0.18675020,0.21848506,0.24038488,0.21548938,0.22660628,0.26836501,0.23446776,0.23109683,0.23874609,0.22075953,0.22768326,0.22293277,0.19818448,0.18312509,0.19046289,0.17700291,0.15452919,0.17229053,0.16933872,0.18109825,0.18139827,0.18596200,0.18870810,0.18282505,0.15066479,0.15977492,0.12575042,0.11774114,0.09808590,0.11193208,0.08227098,0.08994183,0.09471931,0.08401310,0.10137728,0.06519955,0.09125030,0.07972752,0.09865544,0.10420083,0.10267538,0.14131378,0.14949018,0.13167040,0.16085638,0.18109322,0.20298474,0.19782515,0.23697397,0.26026423,0.23522300,0.27371705,0.30309920,0.31854512,0.30364743,0.31854587,0.30229194,0.30563894,0.30380548,0.27588048,0.25310492,0.24054463,0.21790786,0.21876551,0.20197024,0.18720922,0.21594297,0.22257038,0.23747624,0.24095578,0.26839174,0.28118217,0.30320348,0.32935823,0.36612997,0.38723051,0.42744159,0.42841266,0.46582414,0.46235918,0.51074856,0.50806512,0.51536219,0.52239806,0.48990431,0.50023541,0.47052512,0.47142216,0.42746834,0.39730436,0.33158729,0.33962948,0.32894004,0.29654187,0.27537402,0.27857706,0.27321169,0.25302778,0.28372754,0.29576481,0.30399882,0.31354949,0.30683839,0.29159206,0.31044488,0.26154346,0.25659812,0.25405986,0.25438788,0.23319738,0.22855125,0.20076584,0.19139220,0.22407052,0.24513361,0.24194151,0.27145952,0.28685797,0.35393327,0.38954557,0.42019786,0.42511844,0.48650832,0.51265032,0.47224182,0.52969860,0.53216682,0.48747006,0.50175849,0.47361656,0.45087469,0.46870332,0.44806675,0.44372715,0.40986581,0.41746252,0.38630163,0.35061390,0.32239136,0.31426503,0.28257243,0.23063410,0.21801731,0.21645873,0.21553870,0.18286034,0.16705340,0.17203650,0.15315699,0.18778538,0.17718322,0.18541796,0.21775725,0.19410796,0.20230138,0.19629342,0.21448200,0.22295645,0.22567176,0.22912926,0.22826935,0.22663101,0.22555955,0.23014812,0.23170922,0.23376136
-0.02615810,-0.02066393,-0.00982071,-0.00514266,0.00595775,-0.00766430,-0.01537306,0.00034142,0.01119784,-0.01363224,-0.00702664,-0.01047913,-0.00675460,0.00375736,0.00464383,-0.00407540,-0.01209111,0.00182545,0.00871728,0.00723674,-0.00018120,0.01179502,0.01236010,0.00098116,0.02784373,0.02656009,0.04014303,0.02954092,0.03510509,0.02494508,0.03635463,0.05070996,0.05843533,0.06858972,0.05879936,0.07788999,0.12200522,0.13954646,0.18833000,0.24488140,0.26539653,0.28912126,0.28955041,0.29593457,0.29024885,0.26447416,0.21413010,0.16964226,0.15971691,0.14963627,0.11682590,0.08322515,0.08480307,0.05188640,0.06965453,0.05689885,0.05752801,0.04527778,0.06594866,0.05647391,0.04809774,0.05735054,0.05010715,0.06361115,0.06521651,0.06562477,0.06502365,0.06452650,0.07479961,0.08408062,0.06879385,0.10084669,0.09750320,0.10785181,0.16999761,0.18659520,0.24331672,0.27125819,0.30033831,0.30376970,0.30445174,0.29936426,0.28858997,0.28155132,0.26514934,0.28883797,0.30204704,0.38202933,0.37709303,0.42345965,0.46798205,0.49627622,0.54203123,0.51933796,0.49056074,0.46658051,0.45440367,0.41874818,0.38798335,0.35143908,0.32434628,0.28947066,0.25564427,0.24451257,0.23565860,0.20846679,0.17873025,0.16769235,0.18313314,0.18988414,0.21887719,0.22959522,0.24830278,0.27569462,0.27519808,0.30980303,0.35750146,0.34195133,0.32848302,0.31030606,0.27986710,0.26904007,0.22597020,0.22157639,0.18482029,0.20816551,0.16557198,0.16988924,0.16950907,0.17805227,0.18570677,0.18767432,0.22356375,0.23182513,0.25881335,0.28122961,0.28987440,0.36850515,0.40904595,0.42537334,0.47470722,0.52013351,0.57174338,0.58774427,0.55816454,0.59162008,0.57562412,0.56460116,0.53741630,0.46946819,0.41429060,0.39916098,0.34855830,0.27979013,0.25998723,0.24379444,0.22218953,0.21367809,0.19815484,0.18957687,0.19751178,0.20769103,0.17378740,0.20959429,0.20679244,0.19926274,0.18557931,0.18004047,0.19831045,0.20466382,0.19662137,0.17814686,0.21145047,0.18823394,0.20616147,0.21040115,0.19436954,0.20420150,0.21585992,0.22674168,0.23303787,0.23819055,0.25296349,0.25684267,0.26693312,0.26665555,0.28495221,0.30392749,0.29101305,0.29859042,0.29838009,0.27805336,0.27868213,0.29735736,0.29508431,0.29070869,0.26906874,0.28426332,0.27528610,0.29344054,0.25225611,0.27761986,0.29989143,0.29981485,0.29908887,0.30191278,0.34497768,0.35925453,0.38202015,0.41916032,0.42418114,0.44803700,0.49606878,0.50563687,0.57797565,0.59857908,0.61279623,0.63628171,0.67827984,0.69636580,0.69956446,0.67655427,0.70991221,0.64774874,0.64944298,0.59675673,0.57820824,0.54872118,0.45964597,0.48529332,0.41814989,0.40687332,0.41912904,0.37997769,0.37205021,0.37760238,0.36054958,0.36084317,0.36824013,0.35348389,0.36594560,0.30803739,0.33445650,0.33306950,0.34096359,0.34277131,0.38256785,0.40061398,0.41764437,0.42861607,0.50620901,0.54858618,0.56058798,0.57504149,0.61953080,0.68148367,0.72842995,0.73366967,0.76049213,0.76769166,0.78341027,0.80838042,0.80263880,0.81902255,0.81083474,0.76878511,0.70019414,0.69599471,0.69373049,0.69022785,0.67785910,0.66452471,0.61954740,0.55944726,0.54014979,0.44765459,0.43902687,0.40974197,0.37657939,0.31962793,0.32453804,0.31390037,0.30296277,0.31139596,0.32450709,0.30665477,0.32317019,0.33489133,0.32917613,0.33030651,0.35375150,0.35540837,0.35053045,0.33355376,0.31988791,0.31852510,0.36452896,0.36194552,0.36169636,0.35491890,0.33518762
0.10409283,0.11016387,0.11337964,0.12556855,0.11749442,0.12158544,0.14337250,0.13435618,0.10150134,0.12326269,0.11137962,0.09905789,0.09801711,0.09620010,0.07496344,0.08743578,0.08221322,0.08201926,0.07442280,0.08409035,0.09001011,0.09737058,0.08056307,0.11867746,0.12878941,0.13965117,0.14878277,0.15315482,0.14658036,0.13511305,0.14045159,0.10700864,0.11712062,0.10451034,0.10285792,0.10892140,0.12331886,0.13032746,0.13360648,0.14154872,0.13772399,0.13399624,0.14384385,0.14616259,0.12097855,0.13764606,0.12739921,0.10599523,0.10416759,0.11201238,0.09706346,0.08777731,0.08923792,0.09689107,0.08657627,0.09838495,0.09150149,0.09034872,0.09884934,0.11056894,0.10440692,0.09363681,0.09986015,0.11790925,0.10006689,0.09769144,0.11103673,0.09826068,0.07066205,0.08723619,0.10891895,0.10231067,0.12778614,0.11037291,0.13568438,0.12817925,0.13966709,0.15539021,0.14782388,0.15433947,0.15688036,0.17039730,0.18297887,0.22416222,0.22279225,0.23354634,0.28021788,0.29543860,0.32567162,0.37958914,0.39346565,0.41907645,0.45423464,0.46357542,0.50056416,0.51354876,0.48702879,0.49733568,0.51943585,0.54735541,0.52214948,0.49995645,0.46005200,0.43174135,0.36628961,0.34827095,0.29190765,0.24818377,0.24827938,0.23208834,0.20201298,0.23081799,0.24870733,0.26487209,0.26032373,0.24538534,0.23584801,0.24744436,0.21859454,0.20164227,0.18832742,0.18727173,0.17203545,0.15820605,0.16575587,0.16608786,0.17094938,0.18835556,0.21156509,0.18968436,0.25634220,0.27983493,0.30944419,0.31584330,0.34392242,0.33840938,0.37465382,0.36422481,0.34786400,0.32052502,0.34735862,0.32184251,0.29152583,0.30368435,0.25919455,0.24951881,0.22441775,0.23624231,0.19905610,0.21812786,0.22216071,0.20000449,0.23024232,0.21274250,0.21683462,0.23728845,0.24160735,0.20498501,0.19154431,0.20102258,0.17393546,0.16470993,0.14002354,0.16776749,0.13954094,0.13980603,0.14421484,0.14049864,0.14448500,0.14696327,0.13803287,0.12147202,0.13117284,0.14140868,0.16131067,0.15050947,0.16563340,0.14788219,0.16800414,0.17060889,0.20524455,0.18305839,0.17898572,0.19463937,0.18127983,0.19156358,0.19509980,0.19991886,0.20406721,0.20932042,0.22799364,0.19596412,0.20626273,0.20391760,0.19299721,0.20016172,0.19181630,0.19872586,0.24816373,0.23887280,0.25974180,0.31464066,0.35776808,0.36983498,0.42169653,0.46796131,0.48591838,0.53343684,0.58325423,0.61990301,0.66794724,0.64274814,0.63761613,0.69980765,0.71025579,0.70104837,0.69178483,0.70107027,0.67137284,0.68359677,0.62387843,0.61753513,0.55571782,0.51462231,0.47590167,0.45803176,0.42514758,0.43359911,0.38768909,0.42003034,0.40105344,0.43308797,0.43721465,0.45031744,0.43099093,0.46972706,0.45971178,0.41729817,0.41817675,0.40439330,0.37153873,0.33970036,0.28859393,0.31554388,0.30626255,0.30054662,0.29137024,0.34198723,0.34612400,0.36685962,0.44182265,0.45854691,0.50750589,0.51777540,0.57857651,0.58812121,0.61412295,0.60609470,0.61531791,0.63209479,0.55781121,0.55609377,0.50682157,0.49891834,0.47369141,0.46520223,0.39610331,0.40655472,0.38122471,0.38491598,0.34199118,0.29387118,0.29688879,0.29068780,0.24793363,0.23458877,0.21049707,0.21110968,0.20898372,0.19977327,0.19096634,0.21135224,0.21645687,0.20375955,0.20576377,0.20724824,0.20586211,0.23432659,0.21768390,0.21497337,0.21055875,0.21154838,0.21150530,0.22341129,0.21167745,0.19984663,0.21082447,0.21522284,0.22620727,0.22756324,0.21020075
0.16565105,0.14191604,0.15653814,0.16046787,0.14497724,0.14527659,0.17153847,0.16178852,0.14049706,0.14225847,0.13629619,0.13139756,0.13153891,0.12595168,0.11906444,0.14533806,0.12545912,0.11551299,0.12517614,0.11791359,0.12845972,0.13547040,0.13064625,0.13772145,0.13689121,0.13704549,0.14308193,0.15635273,0.13979228,0.16216296,0.13944227,0.14592666,0.12726654,0.13785346,0.13247706,0.16043389,0.17130247,0.18567102,0.19911525,0.21098903,0.20971568,0.22746690,0.22805237,0.19217063,0.20583356,0.19398210,0.16512014,0.13847505,0.12743272,0.13154544,0.11891316,0.11960395,0.12302799,0.10548350,0.11049984,0.09777350,0.11227939,0.12181489,0.10153323,0.10778227,0.12329438,0.11803712,0.09695256,0.10624384,0.11382374,0.10119159,0.10958867,0.08689636,0.10301750,0.12868618,0.11814708,0.12458293,0.14627188,0.13750023,0.15435444,0.18865028,0.21763315,0.22555616,0.21611329,0.21632654,0.23832224,0.23141967,0.24472762,0.30214572,0.33907524,0.33897146,0.41159601,0.42881662,0.47010993,0.49348847,0.53969220,0.52734714,0.51602294,0.51997771,0.48106757,0.48343953,0.47131311,0.42279278,0.41669376,0.36036543,0.33175185,0.32141634,0.26147222,0.25501423,0.23779001,0.21716641,0.20800411,0.18177234,0.19320021,0.20144820,0.22657365,0.24594470,0.25220012,0.26945657,0.29595227,0.28785999,0.28425018,0.23595374,0.20913670,0.20630675,0.19527876,0.15594449,0.14122417,0.12816235,0.12496891,0.12186000,0.12137529,0.12864764,0.13824386,0.15258567,0.18388950,0.19486601,0.20058282,0.22701270,0.24301716,0.24959824,0.26372198,0.28122239,0.28335897,0.28922863,0.31552763,0.30895059,0.29046815,0.28681697,0.27748095,0.28433473,0.23386399,0.22965023,0.20507453,0.19994299,0.18071137,0.19005653,0.18086108,0.17578640,0.15368994,0.16089745,0.16916770,0.14642239,0.14239613,0.12726294,0.12493597,0.12330125,0.10968143,0.11450732,0.10609698,0.11636555,0.10014255,0.10229042,0.10336497,0.09867061,0.10752355,0.12366904,0.11382073,0.13224521,0.12728027,0.12913152,0.15255742,0.16458464,0.15451073,0.16025396,0.18528000,0.20218650,0.20870862,0.20388062,0.23782463,0.22306758,0.21453448,0.23587092,0.21619297,0.22495474,0.20798695,0.20797699,0.19065703,0.20469119,0.18936215,0.17830859,0.17423304,0.20606926,0.17542411,0.19806165,0.19927382,0.19497038,0.24223497,0.23719308,0.27287039,0.28153471,0.32355261,0.36825568,0.38075892,0.43254854,0.44807809,0.49495404,0.54312568,0.57368432,0.60718462,0.60602334,0.56014064,0.57514455,0.61046184,0.60562940,0.55129091,0.52788733,0.46091803,0.44931858,0.40038110,0.36036747,0.34051088,0.33248063,0.29828485,0.28120760,0.27720347,0.27947565,0.27400595,0.26090152,0.25455964,0.25980592,0.22318675,0.23700260,0.21946513,0.21777676,0.20173430,0.19813769,0.20836918,0.21653454,0.23049720,0.27273402,0.29920333,0.32103970,0.37846945,0.41696539,0.43275553,0.46186054,0.48953955,0.51780459,0.52331888,0.54412623,0.53702553,0.53003352,0.52257217,0.48960998,0.47617553,0.44249925,0.44991018,0.43615255,0.39272851,0.37680438,0.37994402,0.36682405,0.33331911,0.31058230,0.27446550,0.24133173,0.24111760,0.22166617,0.17281851,0.18365899,0.16342878,0.16671464,0.13907168,0.16381626,0.15392195,0.15882112,0.14894062,0.14679217,0.16315107,0.17889031,0.15505984,0.18167100,0.17802162,0.19432052,0.18386815,0.20036911,0.19286951,0.17842711,0.16550802,0.19140204,0.17805339,0.19580121,0.19189953,0.19958877,0.19509400
