1000,1008,1016,1024,1032,1040,1048,1056,1064,1072,1080,1088,1096,1104,1112,1120,1128,1136,1144,1152,1160,1168,1176,1184,1192,1200,1208,1216,1224,1232,1240,1248,1256,1264,1272,1280,1288,1296,1304,1312,1320,1328,1336,1344,1352,1360,1368,1376,1384,1392,1400,1408,1416,1424,1432,1440,1448,1456,1464,1472,1480,1488,1496,1504,1512,1520,1528,1536,1544,1552,1560,1568,1576,1584,1592,1600,1608,1616,1624,1632,1640,1648,1656,1664,1672,1680,1688,1696,1704,1712,1720,1728,1736,1744,1752,1760,1768,1776,1784,1792,1800,1808,1816,1824,1832,1840,1848,1856,1864,1872,1880,1888,1896,1904,1912,1920,1928,1936,1944,1952,1960,1968,1976,1984,1992,2000,2008,2016,2024,2032,2040,2048,2056,2064,2072,2080,2088,2096,2104,2112,2120,2128,2136,2144,2152,2160,2168,2176,2184,2192,2200,2208,2216,2224,2232,2240,2248,2256,2264,2272,2280,2288,2296,2304,2312,2320,2328,2336,2344,2352,2360,2368,2376,2384,2392,2400
0.49993188,0.50421423,0.50490666,0.50575397,0.50610653,0.50646089,0.50664402,0.50679956,0.50694734,0.50686342,0.50640979,0.50574873,0.50475240,0.50364879,0.50228835,0.50064226,0.49820000,0.49402777,0.48732631,0.47995723,0.47463701,0.47172868,0.46991504,0.46833502,0.46688289,0.46595013,0.46571067,0.46624601,0.46736154,0.46839184,0.46920053,0.46973236,0.46997818,0.46997051,0.46950976,0.46872232,0.46744276,0.46557926,0.46268245,0.45849831,0.45291116,0.44586422,0.43758731,0.42909211,0.42125766,0.41377807,0.40443220,0.38954169,0.36342343,0.32394334,0.27868936,0.23920840,0.21146103,0.19422021,0.18392351,0.17841147,0.17602146,0.17578775,0.17782162,0.18308209,0.19112651,0.20074810,0.21106254,0.22164168,0.23208256,0.24211480,0.25163024,0.26041711,0.26857502,0.27603527,0.28282563,0.28897228,0.29467613,0.29990706,0.30481227,0.30937585,0.31358308,0.31737026,0.32062656,0.32327260,0.32479227,0.32497570,0.32484007,0.32618006,0.32797317,0.32800404,0.32621329,0.32351748,0.32063427,0.31743442,0.31407059,0.31060680,0.30796846,0.30524535,0.30108300,0.29639552,0.29237595,0.28948446,0.28768750,0.28721266,0.28752165,0.28891537,0.28971345,0.29013550,0.28985655,0.28774974,0.28225992,0.27125496,0.25197123,0.22118088,0.17868796,0.13248307,0.09328254,0.06928991,0.05791615,0.05317842,0.05151441,0.05169872,0.05326927,0.05594680,0.05944720,0.06366022,0.06852140,0.07398299,0.07992623,0.08612228,0.09241967,0.09849542,0.10420170,0.10941390,0.11412619,0.11831228,0.12221957,0.12610569,0.13000889,0.13375704,0.13730059,0.14070286,0.14388060,0.14676811,0.14929611,0.15162061,0.15432330,0.15729587,0.16048763,0.16329332,0.16574745,0.16822209,0.17085300,0.17354412,0.17597076,0.17819519,0.18027552,0.18151248,0.18110129,0.17882538,0.17457275,0.16971930,0.16517783,0.16087922,0.15679436,0.15321433,0.14917124,0.14378229,0.13837747,0.13596147,0.13383534,0.13030996,0.12665454,0.12320681,0.12073992,0.11755575,0.11345505,0.10920844,0.10498919,0.10044915
0.50134398,0.50483724,0.50543006,0.50604051,0.50652614,0.50679952,0.50698184,0.50718892,0.50728325,0.50715229,0.50675422,0.50610492,0.50507333,0.50404755,0.50273710,0.50108641,0.49875115,0.49482049,0.48853139,0.48149269,0.47622728,0.47315590,0.47125465,0.46958658,0.46794711,0.46691160,0.46668699,0.46709738,0.46812248,0.46921254,0.47000638,0.47058751,0.47083081,0.47077382,0.47035453,0.46958275,0.46841007,0.46663387,0.46387040,0.45989876,0.45459857,0.44776090,0.43985016,0.43165601,0.42410291,0.41690130,0.40800502,0.39383330,0.36880520,0.33040240,0.28583780,0.24643373,0.21806667,0.19985241,0.18862522,0.18216900,0.17916949,0.17842816,0.18009649,0.18501304,0.19271864,0.20212252,0.21233099,0.22275873,0.23308107,0.24306186,0.25247497,0.26124738,0.26931836,0.27682716,0.28357295,0.28974232,0.29536009,0.30057493,0.30544279,0.30998683,0.31423493,0.31804369,0.32131361,0.32396208,0.32558470,0.32572058,0.32564297,0.32700472,0.32888039,0.32899411,0.32719406,0.32450829,0.32164906,0.31857082,0.31532368,0.31199546,0.30943046,0.30687134,0.30291571,0.29834231,0.29433371,0.29173706,0.29016896,0.28981928,0.29019611,0.29108812,0.29205276,0.29270290,0.29257089,0.29065192,0.28552950,0.27496808,0.25607782,0.22586731,0.18371244,0.13691504,0.09647521,0.07113381,0.05874716,0.05334216,0.05126633,0.05126271,0.05276171,0.05544465,0.05900922,0.06332574,0.06831364,0.07389703,0.07994431,0.08620527,0.09247780,0.09862204,0.10438714,0.10966301,0.11436770,0.11857138,0.12250196,0.12642897,0.13034755,0.13419350,0.13780550,0.14117538,0.14442080,0.14739811,0.14991334,0.15234007,0.15500750,0.15804320,0.16136320,0.16430399,0.16678056,0.16935481,0.17210958,0.17489287,0.17750589,0.17999499,0.18207907,0.18342783,0.18314691,0.18077201,0.17652627,0.17159075,0.16702123,0.16262526,0.15849794,0.15487669,0.15076929,0.14533738,0.13979338,0.13751718,0.13544963,0.13187721,0.12812769,0.12466924,0.12235862,0.11918279,0.11524690,0.11076674,0.10640630,0.10187665
0.51204586,0.51597626,0.51655227,0.51713598,0.51771004,0.51794100,0.51815958,0.51827920,0.51828319,0.51804129,0.51768751,0.51708853,0.51624243,0.51522105,0.51414811,0.51257164,0.51053721,0.50711096,0.50149597,0.49534322,0.49055024,0.48770078,0.48586155,0.48420495,0.48266243,0.48168073,0.48125392,0.48170200,0.48271077,0.48371807,0.48443369,0.48494845,0.48513381,0.48509108,0.48473627,0.48405945,0.48300362,0.48138294,0.47882631,0.47526960,0.47052295,0.46435179,0.45721508,0.44981976,0.44274946,0.43606570,0.42798429,0.41519764,0.39232800,0.35652202,0.31350683,0.27390198,0.24442704,0.22493841,0.21281166,0.20583740,0.20255322,0.20171173,0.20331186,0.20822595,0.21607825,0.22558206,0.23581183,0.24622826,0.25638116,0.26608514,0.27517449,0.28350316,0.29112524,0.29808716,0.30444732,0.31014935,0.31535139,0.32021099,0.32481585,0.32917950,0.33324026,0.33687908,0.34000928,0.34253396,0.34390468,0.34369414,0.34325492,0.34463821,0.34664584,0.34672281,0.34475944,0.34193740,0.33897155,0.33577079,0.33255524,0.32925000,0.32714616,0.32491991,0.32110734,0.31688064,0.31328621,0.31087344,0.30960745,0.30933707,0.30984516,0.31241553,0.31338994,0.31408985,0.31415829,0.31262525,0.30813399,0.29828292,0.28040549,0.25102171,0.20846010,0.15864049,0.11285491,0.08203772,0.06596083,0.05860973,0.05581118,0.05580400,0.05788072,0.06147655,0.06613920,0.07167347,0.07792888,0.08477822,0.09202874,0.09948129,0.10685655,0.11383003,0.12015839,0.12574008,0.13053500,0.13457191,0.13829093,0.14207169,0.14579338,0.14935343,0.15269695,0.15584661,0.15874865,0.16141887,0.16352663,0.16554656,0.16807758,0.17113102,0.17447161,0.17745645,0.18011601,0.18293007,0.18600090,0.18920860,0.19222254,0.19515173,0.19779340,0.19943231,0.19931162,0.19684485,0.19210957,0.18657594,0.18160431,0.17694505,0.17273026,0.16912665,0.16490767,0.15907179,0.15330160,0.15104400,0.14903413,0.14559359,0.14175317,0.13850390,0.13631809,0.13309599,0.12912611,0.12432492,0.11970722,0.11473995
0.54216089,0.54638629,0.54902403,0.55175783,0.55411284,0.55588988,0.55732117,0.55847497,0.55950853,0.56028309,0.56059290,0.56023563,0.55929439,0.55786864,0.55615372,0.55376396,0.54947184,0.54028880,0.52591186,0.51159813,0.50239026,0.49784406,0.49535558,0.49324270,0.49165254,0.49140831,0.49243901,0.49452690,0.49707892,0.49942628,0.50158625,0.50345712,0.50485552,0.50556363,0.50538951,0.50428266,0.50225728,0.49892219,0.49374847,0.48603788,0.47562799,0.46252100,0.44779735,0.43318589,0.41997632,0.40739680,0.39193473,0.36758405,0.32752393,0.27367079,0.22029681,0.18035693,0.15556923,0.14120335,0.13298333,0.12858708,0.12677294,0.12666479,0.12855264,0.13337098,0.14068885,0.14960011,0.15960426,0.17030644,0.18138581,0.19258648,0.20373980,0.21454146,0.22502011,0.23505530,0.24447922,0.25307495,0.26117657,0.26880264,0.27587854,0.28240914,0.28842519,0.29380437,0.29854221,0.30263387,0.30614745,0.30878827,0.31040257,0.31078383,0.31030847,0.30867869,0.30591076,0.30273706,0.29912804,0.29481785,0.29009844,0.28558614,0.28152588,0.27706420,0.27149840,0.26570968,0.26079343,0.25709500,0.25485341,0.25398543,0.25426783,0.26004079,0.26110526,0.26137702,0.26015738,0.25632476,0.24793953,0.23245868,0.20746646,0.17163956,0.12885528,0.08927642,0.06108035,0.04630770,0.03999875,0.03741239,0.03641114,0.03640732,0.03710042,0.03835844,0.04016440,0.04242864,0.04514968,0.04829738,0.05183521,0.05568581,0.05975655,0.06394734,0.06812820,0.07225590,0.07621068,0.08001710,0.08393531,0.08825348,0.09288084,0.09757332,0.10217693,0.10664565,0.11095951,0.11532500,0.11942047,0.12321948,0.12650694,0.12935409,0.13199916,0.13421616,0.13631338,0.13860914,0.14101115,0.14332543,0.14534252,0.14691689,0.14771405,0.14763859,0.14620558,0.14357953,0.14021760,0.13614575,0.13159884,0.12707641,0.12277660,0.11873422,0.11434899,0.10991890,0.10640680,0.10395550,0.10069707,0.09696634,0.09272120,0.08900752,0.08589835,0.08252341,0.07924099,0.07585499,0.07241986,0.06902343
0.58827493,0.59148074,0.59426462,0.59701228,0.59947445,0.60162968,0.60340107,0.60456847,0.60543391,0.60590068,0.60595955,0.60545782,0.60447533,0.60309589,0.60147401,0.59916409,0.59476749,0.58547326,0.57082460,0.55610215,0.54660828,0.54182772,0.53916350,0.53699306,0.53530608,0.53497176,0.53598499,0.53797947,0.54046838,0.54282163,0.54501783,0.54695611,0.54846340,0.54922728,0.54917124,0.54806180,0.54579150,0.54209161,0.53645719,0.52826851,0.51740723,0.50387192,0.48864737,0.47346590,0.45985345,0.44689066,0.43089436,0.40550062,0.36315598,0.30544672,0.24750308,0.20359446,0.17600826,0.15976877,0.15027894,0.14503928,0.14275134,0.14236031,0.14428570,0.14942161,0.15737664,0.16716863,0.17809641,0.18978090,0.20192304,0.21414681,0.22630521,0.23813612,0.24953461,0.26049098,0.27070304,0.28014090,0.28893255,0.29724234,0.30491734,0.31205411,0.31856527,0.32440445,0.32959794,0.33406842,0.33795505,0.34086864,0.34267499,0.34315954,0.34265590,0.34090170,0.33802624,0.33466969,0.33092083,0.32640688,0.32140879,0.31665705,0.31245954,0.30781439,0.30195743,0.29594215,0.29078718,0.28698899,0.28475573,0.28404974,0.28466301,0.28842824,0.28973387,0.29012197,0.28895948,0.28495261,0.27601890,0.25932291,0.23202273,0.19279281,0.14537546,0.10107407,0.06904172,0.05200789,0.04453045,0.04144169,0.04019324,0.04013047,0.04093513,0.04238524,0.04447331,0.04701687,0.05012149,0.05372735,0.05775602,0.06210587,0.06674247,0.07154082,0.07626589,0.08092657,0.08534638,0.08961867,0.09402690,0.09885198,0.10403583,0.10931030,0.11447644,0.11951989,0.12441701,0.12926994,0.13391200,0.13818499,0.14191028,0.14513616,0.14809779,0.15063422,0.15305126,0.15564553,0.15844816,0.16117950,0.16358680,0.16540781,0.16645232,0.16639120,0.16480734,0.16200869,0.15831173,0.15387033,0.14874424,0.14366389,0.13900844,0.13446679,0.12955426,0.12472136,0.12085231,0.11802771,0.11454991,0.11015943,0.10546523,0.10143326,0.09785211,0.09415887,0.09040213,0.08643171,0.08265060,0.07889298
0.59218074,0.59649565,0.59919372,0.60192538,0.60433003,0.60642705,0.60813873,0.60951858,0.61060005,0.61108665,0.61128045,0.61076031,0.60983788,0.60845248,0.60682548,0.60458289,0.60026396,0.59131686,0.57706184,0.56271446,0.55319663,0.54822244,0.54539671,0.54300059,0.54115995,0.54070837,0.54159150,0.54355665,0.54615368,0.54852979,0.55071464,0.55267066,0.55415723,0.55492989,0.55492283,0.55401941,0.55200559,0.54859650,0.54320873,0.53527560,0.52454375,0.51126045,0.49623639,0.48124524,0.46780678,0.45510082,0.43942117,0.41444994,0.37263812,0.31495165,0.25642800,0.21150962,0.18275647,0.16552514,0.15520486,0.14934610,0.14666672,0.14604099,0.14782892,0.15291073,0.16088596,0.17065886,0.18163255,0.19341955,0.20558064,0.21790592,0.23007095,0.24192298,0.25331266,0.26426903,0.27442644,0.28379194,0.29256947,0.30081818,0.30850792,0.31558546,0.32216680,0.32798877,0.33322053,0.33769833,0.34152666,0.34443782,0.34615400,0.34653417,0.34600299,0.34416043,0.34112871,0.33775458,0.33384441,0.32922354,0.32428037,0.31955365,0.31546294,0.31100215,0.30533798,0.29937709,0.29444664,0.29089948,0.28886607,0.28817591,0.28893376,0.29328247,0.29479076,0.29539623,0.29442140,0.29073040,0.28204493,0.26549691,0.23831257,0.19874315,0.15017660,0.10384881,0.06945994,0.05064726,0.04219411,0.03856343,0.03707110,0.03693838,0.03773056,0.03930024,0.04155253,0.04437180,0.04771245,0.05156694,0.05585793,0.06051891,0.06539853,0.07040514,0.07532849,0.08018967,0.08484151,0.08914302,0.09366003,0.09866600,0.10405247,0.10947594,0.11478141,0.11991983,0.12495258,0.12985328,0.13456670,0.13886651,0.14265004,0.14590470,0.14889279,0.15142497,0.15387681,0.15655255,0.15942455,0.16232992,0.16484331,0.16676644,0.16786090,0.16791638,0.16624650,0.16328211,0.15931912,0.15471530,0.14946743,0.14417689,0.13931089,0.13460435,0.12961565,0.12453404,0.12063536,0.11789892,0.11437521,0.10996230,0.10507658,0.10091475,0.09730556,0.09346618,0.08969693,0.08561247,0.08168425,0.07767011
0.58928726,0.59229277,0.59501662,0.59770019,0.60016874,0.60222757,0.60403895,0.60532497,0.60612670,0.60650928,0.60651025,0.60599526,0.60500315,0.60371217,0.60216402,0.59990398,0.59574054,0.58679752,0.57264723,0.55846221,0.54941714,0.54486405,0.54235614,0.54005777,0.53826538,0.53777087,0.53871595,0.54081927,0.54347801,0.54598601,0.54830303,0.55031509,0.55183667,0.55259860,0.55261212,0.55169291,0.54955288,0.54598990,0.54051006,0.53251793,0.52187845,0.50863040,0.49362488,0.47868928,0.46518086,0.45232065,0.43637304,0.41105230,0.36874097,0.31083763,0.25239442,0.20786369,0.17987016,0.16338288,0.15378718,0.14860793,0.14642335,0.14625690,0.14843142,0.15392706,0.16229591,0.17247437,0.18377902,0.19583679,0.20822262,0.22073984,0.23306971,0.24505361,0.25651559,0.26751540,0.27774466,0.28716414,0.29595099,0.30430364,0.31205654,0.31938550,0.32613778,0.33227484,0.33765490,0.34217566,0.34620116,0.34945951,0.35148005,0.35214486,0.35177986,0.35008870,0.34697852,0.34326341,0.33931569,0.33487994,0.33026934,0.32579626,0.32157481,0.31666500,0.31060227,0.30429878,0.29906160,0.29506304,0.29278593,0.29219374,0.29302281,0.29521530,0.29649053,0.29687510,0.29574423,0.29183761,0.28294513,0.26600948,0.23822100,0.19795457,0.14904636,0.10296508,0.06948277,0.05158853,0.04373865,0.04042229,0.03914859,0.03915792,0.04010494,0.04182495,0.04417984,0.04708846,0.05055914,0.05450889,0.05894728,0.06370165,0.06873026,0.07386169,0.07894143,0.08389560,0.08854943,0.09305685,0.09758095,0.10249939,0.10776045,0.11304050,0.11825259,0.12329358,0.12825438,0.13308995,0.13783916,0.14228963,0.14608853,0.14943213,0.15262932,0.15539892,0.15796255,0.16073467,0.16377533,0.16661709,0.16910447,0.17102222,0.17193119,0.17168973,0.16986425,0.16672883,0.16260677,0.15767956,0.15212931,0.14666969,0.14159313,0.13706919,0.13235072,0.12730107,0.12318586,0.12026346,0.11681068,0.11265326,0.10806514,0.10408106,0.10058909,0.09703214,0.09333931,0.08934265,0.08552513,0.08160708
0.59997235,0.60306637,0.60564450,0.60806378,0.61039476,0.61242836,0.61407929,0.61531803,0.61620911,0.61665095,0.61669207,0.61622014,0.61531818,0.61406956,0.61258063,0.61039936,0.60641918,0.59793576,0.58446029,0.57081483,0.56189925,0.55725200,0.55460009,0.55224176,0.55028115,0.54971096,0.55056478,0.55258965,0.55524978,0.55774315,0.55997626,0.56194141,0.56338816,0.56418647,0.56419253,0.56335575,0.56137271,0.55806370,0.55289245,0.54524828,0.53503548,0.52217313,0.50761588,0.49305842,0.47987355,0.46727548,0.45171462,0.42695134,0.38519567,0.32718285,0.26778534,0.22182301,0.19237571,0.17477975,0.16435966,0.15856296,0.15605652,0.15565613,0.15777553,0.16332665,0.17189016,0.18226212,0.19383112,0.20611193,0.21876679,0.23145294,0.24398980,0.25612377,0.26775450,0.27883724,0.28906975,0.29850679,0.30734950,0.31576865,0.32360499,0.33094530,0.33776270,0.34392229,0.34927459,0.35384512,0.35796395,0.36119352,0.36316417,0.36379099,0.36334006,0.36148387,0.35823811,0.35437449,0.35029740,0.34582354,0.34115591,0.33670117,0.33268377,0.32792285,0.32201112,0.31585634,0.31069390,0.30691300,0.30493925,0.30442822,0.30534790,0.30748957,0.30899633,0.30960386,0.30866211,0.30499835,0.29618424,0.27931441,0.25122354,0.21003473,0.15926092,0.11044785,0.07412508,0.05413227,0.04515659,0.04127407,0.03972773,0.03963935,0.04066186,0.04257331,0.04515404,0.04839331,0.05222376,0.05657881,0.06138740,0.06656359,0.07197750,0.07748399,0.08290856,0.08813379,0.09306368,0.09770535,0.10240656,0.10759174,0.11309436,0.11866112,0.12402958,0.12929714,0.13439199,0.13944532,0.14431185,0.14885732,0.15277296,0.15627926,0.15950545,0.16232029,0.16498085,0.16790899,0.17103478,0.17416558,0.17690888,0.17889574,0.17994084,0.17969866,0.17787484,0.17453875,0.17011931,0.16484393,0.15897859,0.15328970,0.14804355,0.14314752,0.13826697,0.13297918,0.12873058,0.12584673,0.12226737,0.11794755,0.11314354,0.10897677,0.10533284,0.10143997,0.09758700,0.09350021,0.08951634,0.08532495
0.60940689,0.61198264,0.61447555,0.61676923,0.61892850,0.62080752,0.62250941,0.62375282,0.62468486,0.62504893,0.62514982,0.62472999,0.62391101,0.62280015,0.62131107,0.61933554,0.61558023,0.60774542,0.59517292,0.58236165,0.57372970,0.56906846,0.56621109,0.56368178,0.56170354,0.56103944,0.56180084,0.56374479,0.56632671,0.56873238,0.57082217,0.57270174,0.57411674,0.57487953,0.57496499,0.57426491,0.57248354,0.56941738,0.56454358,0.55740423,0.54767523,0.53555906,0.52172437,0.50784111,0.49531465,0.48343573,0.46865672,0.44493095,0.40465713,0.34774340,0.28846760,0.24158829,0.21079916,0.19198681,0.18052678,0.17395271,0.17088430,0.17012380,0.17198765,0.17739891,0.18588226,0.19626763,0.20784849,0.22016431,0.23285561,0.24554976,0.25802570,0.27011897,0.28170586,0.29264355,0.30284414,0.31220006,0.32095833,0.32922449,0.33700626,0.34426147,0.35102551,0.35719831,0.36253023,0.36699272,0.37104665,0.37426542,0.37619967,0.37677338,0.37627197,0.37435118,0.37094116,0.36705016,0.36302848,0.35850264,0.35390806,0.34965020,0.34581971,0.34129099,0.33558301,0.32973614,0.32486227,0.32141113,0.31967007,0.31932619,0.32057295,0.32238914,0.32418518,0.32503988,0.32438633,0.32103316,0.31258149,0.29603641,0.26829769,0.22692360,0.17485771,0.12360896,0.08429761,0.06179756,0.05127578,0.04651754,0.04450223,0.04427466,0.04533729,0.04745981,0.05041551,0.05398300,0.05827708,0.06305102,0.06833229,0.07391423,0.07970778,0.08554387,0.09130827,0.09678794,0.10193339,0.10673127,0.11165151,0.11700418,0.12275905,0.12846979,0.13404053,0.13948004,0.14468866,0.14987431,0.15485454,0.15945531,0.16351147,0.16702405,0.17028791,0.17319714,0.17588603,0.17896138,0.18229163,0.18553582,0.18848330,0.19067110,0.19182849,0.19170006,0.18981781,0.18638061,0.18172976,0.17620872,0.17014277,0.16407292,0.15867067,0.15366701,0.14842468,0.14301800,0.13873680,0.13586679,0.13220423,0.12767980,0.12274959,0.11841201,0.11487132,0.11093618,0.10677466,0.10263128,0.09824276,0.09380908
0.47460272,0.47698244,0.47899730,0.48090805,0.48284092,0.48449069,0.48592850,0.48700292,0.48746887,0.48763908,0.48751207,0.48703717,0.48629129,0.48515968,0.48390579,0.48200575,0.47853446,0.47140510,0.46010159,0.44816072,0.43993399,0.43531316,0.43219302,0.42920745,0.42701439,0.42661136,0.42758396,0.42975635,0.43276006,0.43566284,0.43796926,0.43983585,0.44120485,0.44204838,0.44226464,0.44162859,0.44001302,0.43712788,0.43269168,0.42634238,0.41778979,0.40699130,0.39460876,0.38195398,0.37025367,0.35906443,0.34562652,0.32487393,0.29071875,0.24389353,0.19639659,0.15993701,0.13696802,0.12369758,0.11616854,0.11216586,0.11043674,0.11016279,0.11151963,0.11523648,0.12109585,0.12839617,0.13652789,0.14525255,0.15428929,0.16342547,0.17244681,0.18115751,0.18953482,0.19746421,0.20495981,0.21187652,0.21830365,0.22447003,0.23027856,0.23585431,0.24108349,0.24571954,0.24964100,0.25291813,0.25572249,0.25746010,0.25790023,0.25748214,0.25631620,0.25300832,0.24758248,0.24199219,0.23736413,0.23360275,0.23048046,0.22777805,0.22570919,0.22298222,0.21888373,0.21474428,0.21158250,0.20968324,0.20874050,0.20867039,0.20935559,0.21025559,0.21125889,0.21172019,0.21128194,0.20886839,0.20307039,0.19154498,0.17219129,0.14403465,0.11020683,0.07922714,0.05744933,0.04606175,0.04108643,0.03897598,0.03816281,0.03812904,0.03869212,0.03968591,0.04106611,0.04274594,0.04472839,0.04699388,0.04952631,0.05222968,0.05505670,0.05799693,0.06090880,0.06364815,0.06619537,0.06854750,0.07088134,0.07332916,0.07591401,0.07859678,0.08116413,0.08372482,0.08621223,0.08855403,0.09078698,0.09290642,0.09484751,0.09676015,0.09875933,0.10054051,0.10219055,0.10398832,0.10588373,0.10778763,0.10952710,0.11092174,0.11174869,0.11179252,0.11049097,0.10758178,0.10340243,0.09836037,0.09351499,0.08936294,0.08624888,0.08344793,0.08007291,0.07703951,0.07522836,0.07475259,0.07369739,0.07171229,0.06937140,0.06762499,0.06645865,0.06491080,0.06334974,0.06122953,0.05935168,0.05728105
0.46809431,0.47113810,0.47325108,0.47518967,0.47699737,0.47874400,0.48001305,0.48104459,0.48166143,0.48188207,0.48168735,0.48138400,0.48074195,0.47977049,0.47855528,0.47676453,0.47331054,0.46643017,0.45534537,0.44368046,0.43555132,0.43108905,0.42817760,0.42528186,0.42312091,0.42282960,0.42385337,0.42613889,0.42922236,0.43214383,0.43447835,0.43640757,0.43776202,0.43863072,0.43882178,0.43823110,0.43669913,0.43396962,0.42964572,0.42353401,0.41520304,0.40459859,0.39240883,0.37990617,0.36838730,0.35733001,0.34400385,0.32341971,0.28957062,0.24299372,0.19546047,0.15875451,0.13557955,0.12223478,0.11479976,0.11094134,0.10936371,0.10921270,0.11072274,0.11459994,0.12069037,0.12812508,0.13646624,0.14536750,0.15456065,0.16375202,0.17280229,0.18149849,0.18984758,0.19778911,0.20520272,0.21208970,0.21854695,0.22463166,0.23045637,0.23601327,0.24116321,0.24577959,0.24966623,0.25293401,0.25575385,0.25746736,0.25777043,0.25734438,0.25612732,0.25287128,0.24731950,0.24167489,0.23699825,0.23317975,0.23004882,0.22744099,0.22543696,0.22273443,0.21872337,0.21461292,0.21163090,0.20983447,0.20893534,0.20879303,0.20940753,0.21074219,0.21169870,0.21232820,0.21187217,0.20954677,0.20376527,0.19231666,0.17309819,0.14495430,0.11075602,0.07931132,0.05708986,0.04544858,0.04042866,0.03829560,0.03755147,0.03753403,0.03816161,0.03920969,0.04066177,0.04241460,0.04448632,0.04685899,0.04950352,0.05236842,0.05534108,0.05837315,0.06135939,0.06415566,0.06672451,0.06911182,0.07143695,0.07388663,0.07645051,0.07905060,0.08167475,0.08418257,0.08658164,0.08892429,0.09112001,0.09318798,0.09513701,0.09702987,0.09903427,0.10084593,0.10245217,0.10424474,0.10625737,0.10822016,0.11003942,0.11144227,0.11238588,0.11245232,0.11108653,0.10817099,0.10390151,0.09884705,0.09392801,0.08977249,0.08656469,0.08384646,0.08057129,0.07738665,0.07561566,0.07517804,0.07416650,0.07222879,0.07000722,0.06828473,0.06713241,0.06551102,0.06391070,0.06203720,0.06010776,0.05799470
0.49040761,0.49177203,0.49350285,0.49536753,0.49697748,0.49857998,0.49975781,0.50063765,0.50117301,0.50128490,0.50119998,0.50097221,0.50045258,0.49964800,0.49858858,0.49700737,0.49402510,0.48800752,0.47829199,0.46777329,0.46013791,0.45573408,0.45274862,0.44983098,0.44771821,0.44736454,0.44834795,0.45057228,0.45363658,0.45649420,0.45877965,0.46061665,0.46198035,0.46282502,0.46311735,0.46272880,0.46144054,0.45908467,0.45537809,0.44996672,0.44255005,0.43303368,0.42198969,0.41047978,0.39972571,0.38937637,0.37716007,0.35840570,0.32700610,0.28233132,0.23442303,0.19527167,0.16911917,0.15358807,0.14470776,0.13995348,0.13790805,0.13758865,0.13909445,0.14329067,0.14992273,0.15804201,0.16698537,0.17640912,0.18601705,0.19546725,0.20463302,0.21334544,0.22158488,0.22933483,0.23656506,0.24318976,0.24943206,0.25535507,0.26102686,0.26645238,0.27158276,0.27619551,0.27999036,0.28321036,0.28584656,0.28736784,0.28746076,0.28679441,0.28541794,0.28179422,0.27577662,0.26961152,0.26461432,0.26063178,0.25759623,0.25524229,0.25371216,0.25148228,0.24789611,0.24428419,0.24170788,0.24046703,0.24002921,0.24019092,0.24102007,0.24008739,0.24127937,0.24209264,0.24198913,0.24016854,0.23504567,0.22423258,0.20532466,0.17653272,0.13953513,0.10260487,0.07394877,0.05745299,0.04979685,0.04648436,0.04528114,0.04532840,0.04625315,0.04789728,0.05011084,0.05276483,0.05581370,0.05923061,0.06293876,0.06681729,0.07082387,0.07478754,0.07852384,0.08192841,0.08491929,0.08747840,0.08995287,0.09258885,0.09539929,0.09816637,0.10087725,0.10348038,0.10590154,0.10820943,0.11041684,0.11243461,0.11435164,0.11630686,0.11840201,0.12031420,0.12206999,0.12410256,0.12642399,0.12874854,0.13090265,0.13274865,0.13392750,0.13416937,0.13266261,0.12931233,0.12420044,0.11830913,0.11236044,0.10747805,0.10378726,0.10050983,0.09668580,0.09305126,0.09123548,0.09106669,0.09024272,0.08807978,0.08551920,0.08376010,0.08271477,0.08103537,0.07914413,0.07701173,0.07465365,0.07218035
0.45095939,0.45581820,0.45862038,0.46158815,0.46462072,0.46712158,0.46909359,0.47039078,0.47134557,0.47169653,0.47162716,0.47120839,0.47021863,0.46869524,0.46680354,0.46410989,0.45900167,0.44831351,0.43151307,0.41429786,0.40243684,0.39528970,0.39007251,0.38496148,0.38121167,0.38034145,0.38202734,0.38577254,0.39098487,0.39589699,0.39977175,0.40284197,0.40510257,0.40650276,0.40687626,0.40608012,0.40388582,0.40017587,0.39452495,0.38640131,0.37552468,0.36213156,0.34716510,0.33227708,0.31866139,0.30578174,0.29077931,0.26852920,0.23414013,0.19061923,0.15028294,0.12177790,0.10463884,0.09479209,0.08906755,0.08585978,0.08437016,0.08402384,0.08493643,0.08759779,0.09180818,0.09713410,0.10328337,0.11006347,0.11726356,0.12469523,0.13227593,0.13984102,0.14725577,0.15449882,0.16146175,0.16797777,0.17411796,0.17993161,0.18551001,0.19074409,0.19557180,0.19994044,0.20364503,0.20663854,0.20951095,0.21178206,0.21272527,0.21249829,0.21081761,0.20643470,0.19977817,0.19240352,0.18603203,0.18143651,0.17872488,0.17677860,0.17577301,0.17361485,0.16960485,0.16636053,0.16454309,0.16369795,0.16330910,0.16354308,0.16438962,0.16557843,0.16660348,0.16702791,0.16646744,0.16421652,0.15906892,0.14912613,0.13304445,0.11078681,0.08554150,0.06331297,0.04806757,0.04010394,0.03662742,0.03507646,0.03446048,0.03441424,0.03480556,0.03547369,0.03642236,0.03757337,0.03892435,0.04048312,0.04226589,0.04418189,0.04622818,0.04831719,0.05044536,0.05250497,0.05450490,0.05643213,0.05843451,0.06057406,0.06284078,0.06512640,0.06747070,0.06976439,0.07196759,0.07406737,0.07605817,0.07799510,0.07969081,0.08123912,0.08285683,0.08427798,0.08546858,0.08675062,0.08810203,0.08930605,0.09024067,0.09086077,0.09104840,0.09060587,0.08929852,0.08679163,0.08343261,0.07960596,0.07565698,0.07224168,0.06953558,0.06674719,0.06337364,0.06065850,0.05992922,0.06036697,0.05981820,0.05812130,0.05608240,0.05468550,0.05393884,0.05287662,0.05172976,0.05047926,0.04933867,0.04812348
0.42977077,0.44515618,0.44762383,0.45033359,0.45295664,0.45513586,0.45691121,0.45808658,0.45890352,0.45923420,0.45918243,0.45874850,0.45774791,0.45634221,0.45445787,0.45180621,0.44696567,0.43688711,0.42106191,0.40480643,0.39354154,0.38683774,0.38183882,0.37694258,0.37338724,0.37260689,0.37426330,0.37787326,0.38290808,0.38765331,0.39132536,0.39421885,0.39630944,0.39759423,0.39784212,0.39707175,0.39508185,0.39167508,0.38639550,0.37880803,0.36856297,0.35589600,0.34166545,0.32744428,0.31432022,0.30180959,0.28737392,0.26600475,0.23278907,0.19050874,0.15082405,0.12240968,0.10521246,0.09532180,0.08958044,0.08643676,0.08501418,0.08474234,0.08576078,0.08853509,0.09294047,0.09847480,0.10478357,0.11164540,0.11896086,0.12644519,0.13404507,0.14153399,0.14884703,0.15596789,0.16275737,0.16908568,0.17509483,0.18075565,0.18612167,0.19119860,0.19590566,0.20013840,0.20369774,0.20646061,0.20921024,0.21137537,0.21218555,0.21180738,0.20999482,0.20553976,0.19874724,0.19130670,0.18489877,0.18026490,0.17757618,0.17569050,0.17474819,0.17272199,0.16882513,0.16570767,0.16403324,0.16320453,0.16283428,0.16307957,0.16382916,0.16581768,0.16704029,0.16750803,0.16704645,0.16491213,0.15994725,0.15026233,0.13437018,0.11201345,0.08637866,0.06334173,0.04722418,0.03862269,0.03486984,0.03318712,0.03251640,0.03247996,0.03289083,0.03366055,0.03474084,0.03599155,0.03756614,0.03935101,0.04132150,0.04344522,0.04566110,0.04796767,0.05019768,0.05244559,0.05455231,0.05659263,0.05863609,0.06089145,0.06321399,0.06560410,0.06800193,0.07028567,0.07251592,0.07472544,0.07670747,0.07858763,0.08028605,0.08185102,0.08345918,0.08487670,0.08606451,0.08733109,0.08870223,0.08990980,0.09094794,0.09158163,0.09168778,0.09123281,0.08983292,0.08725300,0.08375404,0.07970459,0.07546791,0.07204481,0.06921416,0.06631070,0.06286298,0.06002557,0.05922196,0.05973001,0.05923497,0.05743689,0.05525522,0.05385079,0.05316243,0.05207646,0.05088596,0.04954646,0.04826810,0.04689632
0.48723343,0.49039775,0.49272651,0.49532266,0.49780988,0.49997551,0.50143563,0.50254100,0.50327665,0.50378630,0.50380097,0.50349998,0.50257703,0.50126807,0.49941081,0.49685775,0.49211464,0.48236813,0.46701737,0.45097532,0.43964554,0.43263555,0.42734436,0.42214759,0.41838557,0.41754126,0.41926570,0.42317732,0.42857895,0.43364105,0.43755281,0.44055778,0.44275873,0.44409431,0.44437885,0.44373151,0.44187429,0.43860282,0.43361717,0.42632825,0.41630202,0.40374887,0.38952095,0.37516196,0.36187437,0.34911258,0.33424430,0.31220047,0.27770047,0.23263885,0.18894438,0.15616033,0.13558825,0.12342585,0.11627633,0.11234209,0.11057246,0.11023707,0.11148274,0.11491898,0.12031700,0.12699762,0.13452723,0.14261812,0.15111785,0.15971465,0.16829113,0.17669228,0.18483442,0.19264995,0.19999971,0.20684555,0.21325915,0.21933128,0.22509891,0.23052246,0.23556095,0.23999339,0.24374630,0.24672542,0.24957503,0.25173775,0.25242286,0.25178956,0.24951809,0.24412279,0.23613118,0.22745276,0.21991066,0.21459265,0.21169713,0.20977249,0.20921780,0.20740650,0.20337263,0.20029078,0.19897255,0.19853594,0.19843843,0.19892179,0.19984873,0.20209573,0.20325620,0.20381525,0.20346166,0.20133931,0.19601430,0.18551031,0.16791179,0.14243375,0.11169433,0.08237273,0.06041543,0.04795410,0.04206864,0.03943977,0.03838082,0.03831746,0.03898801,0.04022701,0.04191492,0.04393634,0.04632392,0.04898859,0.05192941,0.05500821,0.05819051,0.06138292,0.06448238,0.06747873,0.07028824,0.07286520,0.07543653,0.07824406,0.08122313,0.08422994,0.08717868,0.08994337,0.09259036,0.09513149,0.09750328,0.09969257,0.10163482,0.10340923,0.10527346,0.10697482,0.10836049,0.10989888,0.11149871,0.11307861,0.11431805,0.11503345,0.11532680,0.11472129,0.11297025,0.10962551,0.10504260,0.09985118,0.09450498,0.08998273,0.08641987,0.08272323,0.07802960,0.07452710,0.07373538,0.07472017,0.07421008,0.07196123,0.06908836,0.06737395,0.06666867,0.06522070,0.06385770,0.06221676,0.06045105,0.05872402
0.56392901,0.56847492,0.57166599,0.57466342,0.57718758,0.57945063,0.58127122,0.58282433,0.58389744,0.58446781,0.58455989,0.58404879,0.58312543,0.58165045,0.57979556,0.57695338,0.57156075,0.56152024,0.54642784,0.53047551,0.51839195,0.51113421,0.50631271,0.50197168,0.49865961,0.49706657,0.49797035,0.50124547,0.50564600,0.50978062,0.51305863,0.51571525,0.51763418,0.51874686,0.51914593,0.51854990,0.51678889,0.51338431,0.50778697,0.49958618,0.48850830,0.47434887,0.45802513,0.44140125,0.42637170,0.41235342,0.39592576,0.37162300,0.33208849,0.27770007,0.22186596,0.17780107,0.14910215,0.13202707,0.12210428,0.11681855,0.11447027,0.11403266,0.11539012,0.11924632,0.12555073,0.13345640,0.14235903,0.15181319,0.16148258,0.17122428,0.18071879,0.18989772,0.19855511,0.20673537,0.21441259,0.22158024,0.22838295,0.23498761,0.24139318,0.24763525,0.25354489,0.25902601,0.26389257,0.26798574,0.27147513,0.27372736,0.27383292,0.27256416,0.27135280,0.26960172,0.26604320,0.26119976,0.25605277,0.25031409,0.24595828,0.24294611,0.24038999,0.23684952,0.23267909,0.22897166,0.22631507,0.22428176,0.22344685,0.22406553,0.22552612,0.22731010,0.22899197,0.23008282,0.23023870,0.22841794,0.22297265,0.21140781,0.19132050,0.16112882,0.12325573,0.08680156,0.06023467,0.04641052,0.04080064,0.03869508,0.03789272,0.03787423,0.03830947,0.03917814,0.04039479,0.04204314,0.04408660,0.04646577,0.04918088,0.05212136,0.05526731,0.05849636,0.06158805,0.06448289,0.06704588,0.06938741,0.07160971,0.07390164,0.07623807,0.07862352,0.08092492,0.08314944,0.08542459,0.08768732,0.08978916,0.09181838,0.09373753,0.09575143,0.09811045,0.10081901,0.10362922,0.10647388,0.10942068,0.11230105,0.11503150,0.11728431,0.11900538,0.11995142,0.11942759,0.11702531,0.11273727,0.10725460,0.10138896,0.09608125,0.09171422,0.08807081,0.08447668,0.08127334,0.07968946,0.07902124,0.07730545,0.07489524,0.07242448,0.07043446,0.06910269,0.06736846,0.06569011,0.06360119,0.06150477,0.05934860
0.57509716,0.57940375,0.58207128,0.58489853,0.58745393,0.58982395,0.59177206,0.59334987,0.59447471,0.59515022,0.59527410,0.59489442,0.59396374,0.59262391,0.59083948,0.58815561,0.58299402,0.57353157,0.55954278,0.54432703,0.53226926,0.52433796,0.51878742,0.51396553,0.51023312,0.50840138,0.50909767,0.51229122,0.51672592,0.52089583,0.52422741,0.52694617,0.52890342,0.53020317,0.53080976,0.53054240,0.52908725,0.52609225,0.52092948,0.51335819,0.50276886,0.48926733,0.47359010,0.45754868,0.44295996,0.42940011,0.41371211,0.39066518,0.35258155,0.29889090,0.24195905,0.19546129,0.16388353,0.14409891,0.13196029,0.12495352,0.12145538,0.12025474,0.12110755,0.12463942,0.13074199,0.13859343,0.14750022,0.15701076,0.16684003,0.17668272,0.18628365,0.19557912,0.20433384,0.21260980,0.22035756,0.22757835,0.23445844,0.24116179,0.24762881,0.25389748,0.25994079,0.26549349,0.27046093,0.27467878,0.27824064,0.28058534,0.28069752,0.27936647,0.27812821,0.27640453,0.27279014,0.26785205,0.26272558,0.25685813,0.25247276,0.24970148,0.24750840,0.24433414,0.24042329,0.23717445,0.23492876,0.23336563,0.23284075,0.23386335,0.23576439,0.23805007,0.24002931,0.24148473,0.24195021,0.24045874,0.23541551,0.22429053,0.20436419,0.17363707,0.13414601,0.09444390,0.06378186,0.04675211,0.03921529,0.03608480,0.03484013,0.03463918,0.03513767,0.03619167,0.03763661,0.03957505,0.04198054,0.04476362,0.04783336,0.05112167,0.05465101,0.05816129,0.06162848,0.06477739,0.06756755,0.07012598,0.07253571,0.07502828,0.07762654,0.08019749,0.08274692,0.08522981,0.08764132,0.09003002,0.09232357,0.09444793,0.09652209,0.09873611,0.10130234,0.10426466,0.10738067,0.11054787,0.11374082,0.11696263,0.12001464,0.12249865,0.12453128,0.12577797,0.12525409,0.12264134,0.11802454,0.11203269,0.10578478,0.09999070,0.09506656,0.09097462,0.08714626,0.08355787,0.08188973,0.08150403,0.07957325,0.07699789,0.07417462,0.07208064,0.07064341,0.06891590,0.06695104,0.06477495,0.06234193,0.05999399
0.57817601,0.58326208,0.58578843,0.58832757,0.59073412,0.59286619,0.59473161,0.59645226,0.59754094,0.59820659,0.59843204,0.59807276,0.59729485,0.59602861,0.59434069,0.59183434,0.58693429,0.57814942,0.56522427,0.55101012,0.53929897,0.53130191,0.52568928,0.52061419,0.51676421,0.51487896,0.51541658,0.51861805,0.52299915,0.52708535,0.53040686,0.53303442,0.53499595,0.53635292,0.53699316,0.53686732,0.53568103,0.53292505,0.52828485,0.52112846,0.51124543,0.49839776,0.48335759,0.46796852,0.45389077,0.44072146,0.42574102,0.40366935,0.36695441,0.31421208,0.25694065,0.20887941,0.17517772,0.15361885,0.14014960,0.13220909,0.12811430,0.12651261,0.12711483,0.13057962,0.13673571,0.14468318,0.15370812,0.16337026,0.17329192,0.18320884,0.19288185,0.20215775,0.21093784,0.21914308,0.22678016,0.23395913,0.24083430,0.24743183,0.25383485,0.26010916,0.26610390,0.27163290,0.27656375,0.28076172,0.28429031,0.28658277,0.28646923,0.28499791,0.28359893,0.28173793,0.27804401,0.27303220,0.26777988,0.26171453,0.25726290,0.25451643,0.25258491,0.24970195,0.24610989,0.24307947,0.24115299,0.23993986,0.23970019,0.24088760,0.24295645,0.24587685,0.24801762,0.24968917,0.25039945,0.24917826,0.24444599,0.23372697,0.21413492,0.18334774,0.14272905,0.10059977,0.06673830,0.04695312,0.03775201,0.03380397,0.03218743,0.03184728,0.03239507,0.03360315,0.03532503,0.03757424,0.04034192,0.04345555,0.04692050,0.05060883,0.05441591,0.05833052,0.06203120,0.06537445,0.06829153,0.07088256,0.07333747,0.07584081,0.07847805,0.08111181,0.08365423,0.08616873,0.08856161,0.09104193,0.09325995,0.09534521,0.09733197,0.09956874,0.10223479,0.10530457,0.10860762,0.11196036,0.11541554,0.11897331,0.12222794,0.12504586,0.12727444,0.12858936,0.12806253,0.12526344,0.12033431,0.11400565,0.10734367,0.10115139,0.09614080,0.09190809,0.08766254,0.08392088,0.08231154,0.08193655,0.08005211,0.07724676,0.07424689,0.07202304,0.07054910,0.06874595,0.06670330,0.06437962,0.06166998,0.05928749
0.55145151,0.55604140,0.55929211,0.56243779,0.56528787,0.56753852,0.56949343,0.57122915,0.57238017,0.57310813,0.57323683,0.57281614,0.57174831,0.57025924,0.56822928,0.56525188,0.55953865,0.54893701,0.53304448,0.51609808,0.50309738,0.49521821,0.49005975,0.48545635,0.48187371,0.48009647,0.48110519,0.48465262,0.48928419,0.49362916,0.49709077,0.49992666,0.50193046,0.50318735,0.50363379,0.50302627,0.50122997,0.49767456,0.49185795,0.48340098,0.47180689,0.45704647,0.44012011,0.42294070,0.40745088,0.39299032,0.37625881,0.35186118,0.31263073,0.25940461,0.20559742,0.16364264,0.13659385,0.12058920,0.11131384,0.10633734,0.10411526,0.10363542,0.10476646,0.10819687,0.11383099,0.12099153,0.12907648,0.13769404,0.14657725,0.15548137,0.16423214,0.17266031,0.18069624,0.18829828,0.19542193,0.20213563,0.20853317,0.21471742,0.22075685,0.22664511,0.23219002,0.23733260,0.24193207,0.24586469,0.24921316,0.25125458,0.25134481,0.25016205,0.24878768,0.24683508,0.24320913,0.23818803,0.23299467,0.22703719,0.22286215,0.22057854,0.21847683,0.21511604,0.21107786,0.20751228,0.20507938,0.20312007,0.20251560,0.20361846,0.20522819,0.20710061,0.20877957,0.20984847,0.20998351,0.20821761,0.20303802,0.19223518,0.17357895,0.14583385,0.11137420,0.07864615,0.05489381,0.04254550,0.03755471,0.03559067,0.03491702,0.03482396,0.03522124,0.03596487,0.03703243,0.03842481,0.04012239,0.04217069,0.04445420,0.04702254,0.04970346,0.05250041,0.05518706,0.05773677,0.05997432,0.06202920,0.06397089,0.06597319,0.06805256,0.07007447,0.07207544,0.07405824,0.07600905,0.07801223,0.07992246,0.08173162,0.08345941,0.08525755,0.08735141,0.08982985,0.09236453,0.09486923,0.09749405,0.10004001,0.10246006,0.10437816,0.10589122,0.10672266,0.10613898,0.10388851,0.09986431,0.09471555,0.08931687,0.08448479,0.08064556,0.07737488,0.07408312,0.07106213,0.06959473,0.06896772,0.06736784,0.06544277,0.06338971,0.06170152,0.06054570,0.05913274,0.05788977,0.05606762,0.05429275,0.05246976
0.55852587,0.56351151,0.56631039,0.56930549,0.57188686,0.57433181,0.57640724,0.57796239,0.57926145,0.57994232,0.58021010,0.57983428,0.57883939,0.57743907,0.57552345,0.57268402,0.56715946,0.55710216,0.54210828,0.52571091,0.51286885,0.50457958,0.49897754,0.49408316,0.49033331,0.48838664,0.48926674,0.49288702,0.49759487,0.50194603,0.50550450,0.50837301,0.51041274,0.51177858,0.51236792,0.51203921,0.51044529,0.50720818,0.50184160,0.49384496,0.48276219,0.46857017,0.45213788,0.43534403,0.42001688,0.40579634,0.38948523,0.36587169,0.32750388,0.27443725,0.21938732,0.17535274,0.14612898,0.12834330,0.11771234,0.11179088,0.10900346,0.10815794,0.10909961,0.11244708,0.11815221,0.12544658,0.13366532,0.14249147,0.15157916,0.16069307,0.16958004,0.17815720,0.18622993,0.19387339,0.20102482,0.20781179,0.21429394,0.22055188,0.22661377,0.23247949,0.23814963,0.24341923,0.24807415,0.25207316,0.25549434,0.25753688,0.25753743,0.25617838,0.25474980,0.25277840,0.24899119,0.24374139,0.23845192,0.23224850,0.22802533,0.22591838,0.22410117,0.22103364,0.21725373,0.21396401,0.21177872,0.21014167,0.20976869,0.21113402,0.21316299,0.21520748,0.21702934,0.21837738,0.21871175,0.21716311,0.21219533,0.20156312,0.18281771,0.15432733,0.11838860,0.08312572,0.05662902,0.04229510,0.03616092,0.03365873,0.03272645,0.03264041,0.03307480,0.03392735,0.03516264,0.03677958,0.03876206,0.04109927,0.04371373,0.04652753,0.04952983,0.05258633,0.05557235,0.05821724,0.06065286,0.06284247,0.06489225,0.06699490,0.06918349,0.07132885,0.07348575,0.07550926,0.07761434,0.07970469,0.08165882,0.08348305,0.08531340,0.08721569,0.08944344,0.09200174,0.09477323,0.09757934,0.10035553,0.10318867,0.10573856,0.10797308,0.10969369,0.11067868,0.11011988,0.10764061,0.10340595,0.09779101,0.09199782,0.08667229,0.08254580,0.07903857,0.07553737,0.07226084,0.07076165,0.07024312,0.06852742,0.06656131,0.06432705,0.06257750,0.06136327,0.06000972,0.05847482,0.05667956,0.05479222,0.05283948
0.56878929,0.57382172,0.57644763,0.57927226,0.58190495,0.58410474,0.58591388,0.58755186,0.58887214,0.58971983,0.59001202,0.58961353,0.58880106,0.58746953,0.58570023,0.58277219,0.57759108,0.56817833,0.55409826,0.53861617,0.52588997,0.51737960,0.51150904,0.50632462,0.50238843,0.50029715,0.50112760,0.50471362,0.50950478,0.51380451,0.51736887,0.52023249,0.52230119,0.52373385,0.52434494,0.52413068,0.52280248,0.51986914,0.51496126,0.50744881,0.49691491,0.48327349,0.46729817,0.45097487,0.43594771,0.42199894,0.40616949,0.38333461,0.34582170,0.29302604,0.23673430,0.19039069,0.15865224,0.13881096,0.12676731,0.11988685,0.11650909,0.11534034,0.11608030,0.11940302,0.12518618,0.13265687,0.14113725,0.15018938,0.15947089,0.16874605,0.17777656,0.18642285,0.19461669,0.20224174,0.20937539,0.21616112,0.22259787,0.22889316,0.23493295,0.24085730,0.24655681,0.25185607,0.25656225,0.26058311,0.26393575,0.26600240,0.26584291,0.26428925,0.26270748,0.26057918,0.25654529,0.25107842,0.24549599,0.23901140,0.23463927,0.23266912,0.23103406,0.22823271,0.22459054,0.22159480,0.21977757,0.21832418,0.21830345,0.21993580,0.22212036,0.22502008,0.22703966,0.22857374,0.22915825,0.22787694,0.22321390,0.21284002,0.19422872,0.16528775,0.12775900,0.08969357,0.05985927,0.04289541,0.03528925,0.03210843,0.03081339,0.03059891,0.03108448,0.03208591,0.03356193,0.03541180,0.03774457,0.04043492,0.04339261,0.04656312,0.04991491,0.05326859,0.05644037,0.05940783,0.06195145,0.06418599,0.06623804,0.06839587,0.07058230,0.07285678,0.07500674,0.07708948,0.07914675,0.08123453,0.08324578,0.08511767,0.08692245,0.08883106,0.09118266,0.09396587,0.09693621,0.09992057,0.10300268,0.10608537,0.10895078,0.11132898,0.11326240,0.11444858,0.11387267,0.11121070,0.10643685,0.10045691,0.09401177,0.08841564,0.08392060,0.08012932,0.07627484,0.07273735,0.07131550,0.07098131,0.06908836,0.06693970,0.06459585,0.06269541,0.06150307,0.05991989,0.05856736,0.05651013,0.05439193,0.05224907
0.52494860,0.52800024,0.53023103,0.53268462,0.53475313,0.53655069,0.53796198,0.53909648,0.53987874,0.54023851,0.54021542,0.53985104,0.53906906,0.53799153,0.53661353,0.53459308,0.53091511,0.52312448,0.51064745,0.49740101,0.48784708,0.48214097,0.47840922,0.47480172,0.47183520,0.47033758,0.47067893,0.47288987,0.47642129,0.47993960,0.48281489,0.48502186,0.48671414,0.48775450,0.48804090,0.48748979,0.48587178,0.48279778,0.47789947,0.47083901,0.46120212,0.44898728,0.43493117,0.42071870,0.40778573,0.39561031,0.38091945,0.35817310,0.32002594,0.26696493,0.21255059,0.17020967,0.14281698,0.12627855,0.11632258,0.11075177,0.10812907,0.10747775,0.10881562,0.11282236,0.11925588,0.12738202,0.13657719,0.14645523,0.15665997,0.16701163,0.17735864,0.18741563,0.19705886,0.20620213,0.21479718,0.22280783,0.23038854,0.23763286,0.24460223,0.25130020,0.25767604,0.26351549,0.26876717,0.27343785,0.27737566,0.28030093,0.28214080,0.28272438,0.28193377,0.27945386,0.27499163,0.26968375,0.26439593,0.25907634,0.25428296,0.25019203,0.24760633,0.24418379,0.23894715,0.23367359,0.22991668,0.22754423,0.22659822,0.22706989,0.22854596,0.22947643,0.23108322,0.23211646,0.23197628,0.22956221,0.22304938,0.20981145,0.18727809,0.15415161,0.11400888,0.07689153,0.05101632,0.03800404,0.03256368,0.03025568,0.02931176,0.02911636,0.02951633,0.03034975,0.03158111,0.03317010,0.03515437,0.03744718,0.03998415,0.04270718,0.04577168,0.04905551,0.05232716,0.05555590,0.05856183,0.06136661,0.06415845,0.06710355,0.07014185,0.07329463,0.07652877,0.07976596,0.08303755,0.08631550,0.08960719,0.09279046,0.09574934,0.09853114,0.10127631,0.10393641,0.10645659,0.10906874,0.11171453,0.11440084,0.11678654,0.11870933,0.12000407,0.12020118,0.11874502,0.11550839,0.11078648,0.10520216,0.09945492,0.09455563,0.09071849,0.08730753,0.08344006,0.07945776,0.07679231,0.07580319,0.07395685,0.07116244,0.06796233,0.06552786,0.06382486,0.06176161,0.05953663,0.05718364,0.05479358,0.05247507
0.52897383,0.53158797,0.53385859,0.53588919,0.53810961,0.53960924,0.54099454,0.54211349,0.54290998,0.54336616,0.54340019,0.54295917,0.54228664,0.54116026,0.53981101,0.53787266,0.53433825,0.52702817,0.51518536,0.50247512,0.49295043,0.48700589,0.48287866,0.47910175,0.47586364,0.47417943,0.47443365,0.47649781,0.48007879,0.48356888,0.48632104,0.48857593,0.49013164,0.49123634,0.49157914,0.49117732,0.48970661,0.48688442,0.48224133,0.47556866,0.46638715,0.45457774,0.44099376,0.42719381,0.41460867,0.40285104,0.38870883,0.36682937,0.32971528,0.27696268,0.22158660,0.17740982,0.14795302,0.12959543,0.11827987,0.11171463,0.10846408,0.10739953,0.10850268,0.11239177,0.11881916,0.12704795,0.13636782,0.14643025,0.15674908,0.16724707,0.17770645,0.18785159,0.19751932,0.20665869,0.21525318,0.22329555,0.23093356,0.23820772,0.24525646,0.25206764,0.25853123,0.26454615,0.27000406,0.27479057,0.27891066,0.28194411,0.28391496,0.28452119,0.28381627,0.28136198,0.27684106,0.27148213,0.26623891,0.26095728,0.25618219,0.25223264,0.24978100,0.24655535,0.24133196,0.23627473,0.23271744,0.23060399,0.22975182,0.23059865,0.23231009,0.23341285,0.23532536,0.23662525,0.23681075,0.23476206,0.22862942,0.21560727,0.19309287,0.15944524,0.11778441,0.07822812,0.04989296,0.03526036,0.02902414,0.02633746,0.02521265,0.02495168,0.02529404,0.02618469,0.02749553,0.02918847,0.03131912,0.03378275,0.03649406,0.03943040,0.04262011,0.04605603,0.04953593,0.05286858,0.05600987,0.05888745,0.06173131,0.06472390,0.06781820,0.07103407,0.07430829,0.07760264,0.08095409,0.08435936,0.08768733,0.09097331,0.09409796,0.09698171,0.09994632,0.10285325,0.10561279,0.10850197,0.11142210,0.11425192,0.11691275,0.11904144,0.12047690,0.12071516,0.11921608,0.11575648,0.11076416,0.10478832,0.09863304,0.09345741,0.08935003,0.08582620,0.08186238,0.07763426,0.07493594,0.07380186,0.07211716,0.06919688,0.06595658,0.06342872,0.06160445,0.05955849,0.05731249,0.05496349,0.05240898,0.05011921
0.54393040,0.54667870,0.54852515,0.55044093,0.55217726,0.55389839,0.55505828,0.55613076,0.55669695,0.55707849,0.55714844,0.55682742,0.55625672,0.55535653,0.55425625,0.55255525,0.54944888,0.54315631,0.53284191,0.52151641,0.51265848,0.50689762,0.50287865,0.49899863,0.49585229,0.49414516,0.49424811,0.49629126,0.49983292,0.50337894,0.50609562,0.50818108,0.50976962,0.51082065,0.51124267,0.51095449,0.50981410,0.50737115,0.50336683,0.49748492,0.48931808,0.47880400,0.46637522,0.45358545,0.44183884,0.43075452,0.41768449,0.39754992,0.36289973,0.31211711,0.25659735,0.21013797,0.17773955,0.15697475,0.14390510,0.13621221,0.13236209,0.13104475,0.13209049,0.13620214,0.14310158,0.15187077,0.16176592,0.17233581,0.18309950,0.19387022,0.20444270,0.21468598,0.22437012,0.23341096,0.24185919,0.24969117,0.25710685,0.26422890,0.27116217,0.27792832,0.28437049,0.29036749,0.29576237,0.30054246,0.30458186,0.30746713,0.30917132,0.30960060,0.30849396,0.30548962,0.30037448,0.29441370,0.28859262,0.28291962,0.27795672,0.27408773,0.27205750,0.26935317,0.26450204,0.25976168,0.25666738,0.25511137,0.25471660,0.25577847,0.25777277,0.25922982,0.26133697,0.26294171,0.26349897,0.26189509,0.25628215,0.24388455,0.22168702,0.18725966,0.14276019,0.09788714,0.06339778,0.04410071,0.03542445,0.03153318,0.02982883,0.02941628,0.02989634,0.03107427,0.03287486,0.03525192,0.03813321,0.04140569,0.04491664,0.04862554,0.05272311,0.05700274,0.06120213,0.06516611,0.06873817,0.07191985,0.07497772,0.07812495,0.08144872,0.08492911,0.08844200,0.09190398,0.09543449,0.09902686,0.10258818,0.10601226,0.10924029,0.11231379,0.11543153,0.11843594,0.12151458,0.12467432,0.12787105,0.13114873,0.13423991,0.13667414,0.13844630,0.13880993,0.13707256,0.13301106,0.12709399,0.12011710,0.11299196,0.10699227,0.10238042,0.09842458,0.09404514,0.08936444,0.08647391,0.08560134,0.08373023,0.08056639,0.07704541,0.07429878,0.07252945,0.07030529,0.06789806,0.06518150,0.06239502,0.05950625
0.47483874,0.47895687,0.48070971,0.48242073,0.48414530,0.48524516,0.48601879,0.48706851,0.48786162,0.48857557,0.48880068,0.48855892,0.48791259,0.48698214,0.48574562,0.48405989,0.48080141,0.47456201,0.46504112,0.45532742,0.44868511,0.44502393,0.44292517,0.44107460,0.43932054,0.43859854,0.43914919,0.44072150,0.44294144,0.44503050,0.44672150,0.44821939,0.44925545,0.44969599,0.44957152,0.44890287,0.44760378,0.44549970,0.44212696,0.43698312,0.42981214,0.42051075,0.40981520,0.39898757,0.38929887,0.37990798,0.36771317,0.34809921,0.31552556,0.26927809,0.22109229,0.18284603,0.15808323,0.14359795,0.13539324,0.13124625,0.12969923,0.12982192,0.13179760,0.13643509,0.14354083,0.15211255,0.16158056,0.17156147,0.18183703,0.19202974,0.20204468,0.21174521,0.22096087,0.22967095,0.23777426,0.24509240,0.25190189,0.25827519,0.26414133,0.26970867,0.27482420,0.27927467,0.28321877,0.28653070,0.28914550,0.29097188,0.29126523,0.29059972,0.29007453,0.28931003,0.28711719,0.28398476,0.28008574,0.27565285,0.27170969,0.26850068,0.26619176,0.26342124,0.25902205,0.25424674,0.25047842,0.24787335,0.24619216,0.24605067,0.24668619,0.25281679,0.25386156,0.25444656,0.25381078,0.25076942,0.24355655,0.23046630,0.20862930,0.17594606,0.13505305,0.09685598,0.07026109,0.05676696,0.05105772,0.04888689,0.04815505,0.04804883,0.04862508,0.04994341,0.05174434,0.05377860,0.05624167,0.05919475,0.06270716,0.06638511,0.07017821,0.07424838,0.07842773,0.08249339,0.08614448,0.08958455,0.09331315,0.09729938,0.10147208,0.10535780,0.10920962,0.11294437,0.11662670,0.12012297,0.12316476,0.12590141,0.12827650,0.13044393,0.13294775,0.13535435,0.13778064,0.14024245,0.14285674,0.14527581,0.14733368,0.14913586,0.15067589,0.15135969,0.15059765,0.14828810,0.14426806,0.13930174,0.13430482,0.12966422,0.12591337,0.12206810,0.11761030,0.11283885,0.10938832,0.10799412,0.10584376,0.10238557,0.09863055,0.09540720,0.09324564,0.09086034,0.08788961,0.08481230,0.08158266,0.07919685
0.48964961,0.49342385,0.49508537,0.49679177,0.49837312,0.49969734,0.50051905,0.50145698,0.50230408,0.50290304,0.50315818,0.50299933,0.50241110,0.50158389,0.50040841,0.49890265,0.49580055,0.48981006,0.48077716,0.47138379,0.46464005,0.46073828,0.45833970,0.45610392,0.45419712,0.45324664,0.45362213,0.45510371,0.45733617,0.45939342,0.46115553,0.46267782,0.46367009,0.46421304,0.46418594,0.46357757,0.46247162,0.46042354,0.45711608,0.45214602,0.44517964,0.43610323,0.42569286,0.41519400,0.40608941,0.39760087,0.38579282,0.36667167,0.33491822,0.28860715,0.23937367,0.19927318,0.17232306,0.15575958,0.14583250,0.14034278,0.13781280,0.13734163,0.13887865,0.14321740,0.15008671,0.15856972,0.16809749,0.17814380,0.18850493,0.19883092,0.20894677,0.21883876,0.22820265,0.23706344,0.24527395,0.25273670,0.25970332,0.26617978,0.27220294,0.27784018,0.28311017,0.28771458,0.29180471,0.29522507,0.29802795,0.29981052,0.30014932,0.29941263,0.29899544,0.29827945,0.29614610,0.29293106,0.28908221,0.28451604,0.28067128,0.27754598,0.27543258,0.27289213,0.26857150,0.26406470,0.26043687,0.25809503,0.25677162,0.25694820,0.25792992,0.26439150,0.26585873,0.26678712,0.26667195,0.26412433,0.25722603,0.24419234,0.22236061,0.18931822,0.14657403,0.10552315,0.07582946,0.06008712,0.05314980,0.05027463,0.04917519,0.04895778,0.04950930,0.05081337,0.05273699,0.05498965,0.05758939,0.06074214,0.06445361,0.06834312,0.07234996,0.07666213,0.08097125,0.08520361,0.08897644,0.09261886,0.09647849,0.10063984,0.10494997,0.10909886,0.11308437,0.11695024,0.12088198,0.12444735,0.12765025,0.13048456,0.13296260,0.13534641,0.13799496,0.14073106,0.14331147,0.14612398,0.14885058,0.15160470,0.15403807,0.15606104,0.15780715,0.15865739,0.15804530,0.15562883,0.15141362,0.14607646,0.14065871,0.13577629,0.13173304,0.12770765,0.12304507,0.11795567,0.11430155,0.11295935,0.11072512,0.10730715,0.10328755,0.09980911,0.09756833,0.09490650,0.09193995,0.08868196,0.08549419,0.08266484
0.53006422,0.53342397,0.53449187,0.53581576,0.53685808,0.53786694,0.53870835,0.53951471,0.54022407,0.54074376,0.54100297,0.54111544,0.54070870,0.54001205,0.53916156,0.53784790,0.53532359,0.53103939,0.52456010,0.51749858,0.51192093,0.50823014,0.50596777,0.50382794,0.50193600,0.50100180,0.50135347,0.50276558,0.50500845,0.50709814,0.50873550,0.51010546,0.51098763,0.51142874,0.51151772,0.51128110,0.51069144,0.50945030,0.50726694,0.50373287,0.49850570,0.49165447,0.48339177,0.47466213,0.46646359,0.45834928,0.44875895,0.43376600,0.40746283,0.36719512,0.32028167,0.27774884,0.24626496,0.22566811,0.21286165,0.20564396,0.20221671,0.20136165,0.20278709,0.20737176,0.21495492,0.22428310,0.23446727,0.24502028,0.25571321,0.26618173,0.27614028,0.28564415,0.29447749,0.30276656,0.31029327,0.31699991,0.32327214,0.32921794,0.33486092,0.34021089,0.34517186,0.34957714,0.35341018,0.35651145,0.35911230,0.36043899,0.36005424,0.35852067,0.35733057,0.35615271,0.35347308,0.34935065,0.34480044,0.33961928,0.33559375,0.33270692,0.33158434,0.33023493,0.32699901,0.32342561,0.32110302,0.31983752,0.31940085,0.32017119,0.32166108,0.32836215,0.32993350,0.33100511,0.33114621,0.32942765,0.32431741,0.31350760,0.29338590,0.26040476,0.21435842,0.16267980,0.11757120,0.08840327,0.07350382,0.06664034,0.06401703,0.06380189,0.06538599,0.06846809,0.07255569,0.07728732,0.08268370,0.08881516,0.09549360,0.10219345,0.10886101,0.11551095,0.12166458,0.12723301,0.13186826,0.13576564,0.13989588,0.14454316,0.14938722,0.15384598,0.15798761,0.16196334,0.16574607,0.16906270,0.17195143,0.17441359,0.17645812,0.17862268,0.18132327,0.18442314,0.18760002,0.19109017,0.19491143,0.19881179,0.20242993,0.20566632,0.20819836,0.20981543,0.20919778,0.20593763,0.20002756,0.19246333,0.18476560,0.17804638,0.17281537,0.16776449,0.16183138,0.15522677,0.15125291,0.15080076,0.14886078,0.14464536,0.13987987,0.13605843,0.13422171,0.13137276,0.12809991,0.12418908,0.12003012,0.11599468
0.50306852,0.50695024,0.50897030,0.51110203,0.51288364,0.51432894,0.51538841,0.51642704,0.51724828,0.51800016,0.51816485,0.51795836,0.51735584,0.51625835,0.51480181,0.51290413,0.50926361,0.50228259,0.49151096,0.48061550,0.47345723,0.46960832,0.46750402,0.46543636,0.46375837,0.46308634,0.46354779,0.46521986,0.46742852,0.46959509,0.47149447,0.47311203,0.47424222,0.47486863,0.47481370,0.47408370,0.47261416,0.47011622,0.46619586,0.46035747,0.45225015,0.44185869,0.42995263,0.41791275,0.40694451,0.39631297,0.38323919,0.36223395,0.32686509,0.27785382,0.22748647,0.18841271,0.16335493,0.14871989,0.14030084,0.13603596,0.13438975,0.13446305,0.13643306,0.14117894,0.14839194,0.15716917,0.16696702,0.17729629,0.18795240,0.19873489,0.20919463,0.21938059,0.22910716,0.23829322,0.24693847,0.25490595,0.26225601,0.26915729,0.27562416,0.28162900,0.28726896,0.29223175,0.29670442,0.30051961,0.30359634,0.30578350,0.30652569,0.30624955,0.30631070,0.30614697,0.30473021,0.30197808,0.29844301,0.29423352,0.29023565,0.28634818,0.28335255,0.27982210,0.27462353,0.26910119,0.26458756,0.26130658,0.25944798,0.25887070,0.25938803,0.26448379,0.26537995,0.26567661,0.26467699,0.26119938,0.25356880,0.23950123,0.21619607,0.18188498,0.14037309,0.10220030,0.07580573,0.06254755,0.05698789,0.05477286,0.05406300,0.05404460,0.05461337,0.05593846,0.05777286,0.05984287,0.06229955,0.06526588,0.06873254,0.07244964,0.07617698,0.08026543,0.08441977,0.08850262,0.09225963,0.09591046,0.09970719,0.10374474,0.10785587,0.11176409,0.11559255,0.11950541,0.12340765,0.12712384,0.13036555,0.13348353,0.13624458,0.13884614,0.14176269,0.14462105,0.14728724,0.15008052,0.15275541,0.15522513,0.15728434,0.15912590,0.16059876,0.16121808,0.16052116,0.15825010,0.15449312,0.14981797,0.14503153,0.14066951,0.13700052,0.13333775,0.12911656,0.12415170,0.12043907,0.11861060,0.11599429,0.11243554,0.10844202,0.10498051,0.10256193,0.09974206,0.09648555,0.09313790,0.09003239,0.08709218
0.49426558,0.49796623,0.49963347,0.50118318,0.50254785,0.50356294,0.50445958,0.50539333,0.50613623,0.50666164,0.50696990,0.50690044,0.50647942,0.50576608,0.50482107,0.50344597,0.50068991,0.49554317,0.48746436,0.47923651,0.47363287,0.47071544,0.46906278,0.46756070,0.46620209,0.46570998,0.46606195,0.46745523,0.46949874,0.47144709,0.47300616,0.47437581,0.47524216,0.47571503,0.47565484,0.47515553,0.47410139,0.47231469,0.46938036,0.46494424,0.45877385,0.45067265,0.44117398,0.43135862,0.42218106,0.41318241,0.40201090,0.38410204,0.35341456,0.30898167,0.26081185,0.22127520,0.19502815,0.17942934,0.17066702,0.16642153,0.16498468,0.16539316,0.16776105,0.17306241,0.18112800,0.19068351,0.20106500,0.21186404,0.22279814,0.23349410,0.24383100,0.25369793,0.26297807,0.27170442,0.27971518,0.28702996,0.29372659,0.29997028,0.30579804,0.31118729,0.31621408,0.32063516,0.32446393,0.32771486,0.33035085,0.33191717,0.33200427,0.33122186,0.33058269,0.33006314,0.32815880,0.32512958,0.32116748,0.31673576,0.31275935,0.30923189,0.30703615,0.30440157,0.29983268,0.29502251,0.29119735,0.28873069,0.28711397,0.28667007,0.28697227,0.29326081,0.29408937,0.29431793,0.29347011,0.29046731,0.28357842,0.27056883,0.24805962,0.21346444,0.16900704,0.12461518,0.09084415,0.07208301,0.06366572,0.06024011,0.05920188,0.05938157,0.06059251,0.06277901,0.06574179,0.06906203,0.07296979,0.07742799,0.08257393,0.08775715,0.09309855,0.09860610,0.10398745,0.10909733,0.11356157,0.11782236,0.12214626,0.12678182,0.13153860,0.13596271,0.14024488,0.14439982,0.14848588,0.15227475,0.15561762,0.15854616,0.16113613,0.16355902,0.16642452,0.16929148,0.17203218,0.17488418,0.17778209,0.18059062,0.18304796,0.18527124,0.18692251,0.18764969,0.18679187,0.18402241,0.17949910,0.17388754,0.16826830,0.16320653,0.15908895,0.15495149,0.14985494,0.14397731,0.14008925,0.13878438,0.13624304,0.13212356,0.12758288,0.12373552,0.12132867,0.11808905,0.11467741,0.11057634,0.10704312,0.10352624
0.53338987,0.53732565,0.53893440,0.54069773,0.54217383,0.54339195,0.54435100,0.54538396,0.54608864,0.54661725,0.54684663,0.54677418,0.54615470,0.54521561,0.54412158,0.54250088,0.53927297,0.53356093,0.52477970,0.51550587,0.50896827,0.50534811,0.50324010,0.50115079,0.49929779,0.49857686,0.49888720,0.50035498,0.50255340,0.50470072,0.50649998,0.50801882,0.50908238,0.50962763,0.50964809,0.50919133,0.50813802,0.50622532,0.50306714,0.49807506,0.49110583,0.48213154,0.47171023,0.46096757,0.45108652,0.44154040,0.42981374,0.41119557,0.37892180,0.33208929,0.28108038,0.23847037,0.20933896,0.19139557,0.18073971,0.17507914,0.17271512,0.17246082,0.17447001,0.17952789,0.18747935,0.19718135,0.20781628,0.21890640,0.23020739,0.24131507,0.25201452,0.26227208,0.27191659,0.28099976,0.28941873,0.29705465,0.30416561,0.31089372,0.31718627,0.32312734,0.32869104,0.33359303,0.33798367,0.34168178,0.34476661,0.34667289,0.34701397,0.34624488,0.34595027,0.34564016,0.34394282,0.34081155,0.33681052,0.33235373,0.32820551,0.32445962,0.32216980,0.31925439,0.31461999,0.30968513,0.30579243,0.30322716,0.30184356,0.30172687,0.30256743,0.30836032,0.30958322,0.31023075,0.30972650,0.30693393,0.30016437,0.28689004,0.26372876,0.22796957,0.18156849,0.13429884,0.09764612,0.07669836,0.06708013,0.06298395,0.06156852,0.06154328,0.06270980,0.06499656,0.06798954,0.07151076,0.07551530,0.08020187,0.08548736,0.09090691,0.09638977,0.10200498,0.10749406,0.11268386,0.11719292,0.12136298,0.12571742,0.13027540,0.13495154,0.13931855,0.14344524,0.14757120,0.15167935,0.15539791,0.15880626,0.16189268,0.16472353,0.16748599,0.17071347,0.17410118,0.17721787,0.18055360,0.18389874,0.18719072,0.19004562,0.19266987,0.19461428,0.19559831,0.19494294,0.19215761,0.18744665,0.18136222,0.17517590,0.16965808,0.16526105,0.16100086,0.15598441,0.14999837,0.14583541,0.14435997,0.14180240,0.13761479,0.13276500,0.12899669,0.12640332,0.12310857,0.11951389,0.11542039,0.11170276,0.10776697
0.49933656,0.50343789,0.50555012,0.50785645,0.51005632,0.51187213,0.51328911,0.51438975,0.51516063,0.51560174,0.51570710,0.51546706,0.51482496,0.51376930,0.51247062,0.51048365,0.50675169,0.49945257,0.48816129,0.47656219,0.46859720,0.46458584,0.46245167,0.46060624,0.45908998,0.45856279,0.45917580,0.46074907,0.46280972,0.46502001,0.46696290,0.46864393,0.46991268,0.47073298,0.47082744,0.47018168,0.46867477,0.46593676,0.46162139,0.45537011,0.44685076,0.43607549,0.42366486,0.41106732,0.39967223,0.38906198,0.37603906,0.35565329,0.32146327,0.27372730,0.22449466,0.18596680,0.16092963,0.14599081,0.13728506,0.13269618,0.13075035,0.13056911,0.13228789,0.13666719,0.14353303,0.15198254,0.16137843,0.17135302,0.18159366,0.19189250,0.20206060,0.21178807,0.22112208,0.23003931,0.23841292,0.24609329,0.25316754,0.25982486,0.26608438,0.27207865,0.27762672,0.28253936,0.28691813,0.29063573,0.29356028,0.29529221,0.29562119,0.29513962,0.29500767,0.29489733,0.29395449,0.29215206,0.28963942,0.28629228,0.28247938,0.27875174,0.27529537,0.27144484,0.26655741,0.26149066,0.25709007,0.25369770,0.25158946,0.25090922,0.25125278,0.25372833,0.25472969,0.25503681,0.25431794,0.25148487,0.24487759,0.23219908,0.21086681,0.17917124,0.13946011,0.10126628,0.07334836,0.05867502,0.05244170,0.04994212,0.04902292,0.04901367,0.04967223,0.05086614,0.05249653,0.05456316,0.05699779,0.05989646,0.06317640,0.06681941,0.07069401,0.07474184,0.07873954,0.08268722,0.08642419,0.08992188,0.09345397,0.09711105,0.10083175,0.10456150,0.10829837,0.11182512,0.11516905,0.11848956,0.12151576,0.12437466,0.12694516,0.12953763,0.13242557,0.13518662,0.13773309,0.14029144,0.14285860,0.14528157,0.14758582,0.14952141,0.15085730,0.15126880,0.15011804,0.14736221,0.14338901,0.13897740,0.13478398,0.13129829,0.12856919,0.12595000,0.12260294,0.11856567,0.11491180,0.11226462,0.10947613,0.10611372,0.10251288,0.09942416,0.09670234,0.09390274,0.09103675,0.08792915,0.08491400,0.08190441
0.50816072,0.51172078,0.51396091,0.51617936,0.51819732,0.51995785,0.52135761,0.52247416,0.52317848,0.52355603,0.52361143,0.52326387,0.52270094,0.52165411,0.52046622,0.51854566,0.51502197,0.50803242,0.49739365,0.48623900,0.47849654,0.47443204,0.47226169,0.47037961,0.46881526,0.46817144,0.46871349,0.47007287,0.47214208,0.47420760,0.47608026,0.47775869,0.47899871,0.47975268,0.47991839,0.47938991,0.47788825,0.47520953,0.47086585,0.46468820,0.45642507,0.44588841,0.43368914,0.42136527,0.41021789,0.39976257,0.38704901,0.36695858,0.33262071,0.28371080,0.23218707,0.19104883,0.16383671,0.14724513,0.13737958,0.13198025,0.12957405,0.12914949,0.13084245,0.13540765,0.14260774,0.15152828,0.16148620,0.17206436,0.18289459,0.19372694,0.20439791,0.21461693,0.22445578,0.23382100,0.24254027,0.25054800,0.25801611,0.26492689,0.27147466,0.27766015,0.28337785,0.28856558,0.29312763,0.29699470,0.30000173,0.30176957,0.30204428,0.30156700,0.30146681,0.30135462,0.30042666,0.29856538,0.29606976,0.29267214,0.28877150,0.28489221,0.28149403,0.27757657,0.27265178,0.26745726,0.26294374,0.25977019,0.25770882,0.25709269,0.25754250,0.25965494,0.26065655,0.26106518,0.26035367,0.25746743,0.25076736,0.23760622,0.21520878,0.18162421,0.13904883,0.09734581,0.06649111,0.05025625,0.04348167,0.04079472,0.03980558,0.03976253,0.04040991,0.04162060,0.04329347,0.04542353,0.04800800,0.05107068,0.05458397,0.05851726,0.06268938,0.06703451,0.07136436,0.07564340,0.07967131,0.08355943,0.08740881,0.09139720,0.09550649,0.09957607,0.10356287,0.10735416,0.11098667,0.11444617,0.11765929,0.12064447,0.12333006,0.12606304,0.12907435,0.13207601,0.13481164,0.13763429,0.14037708,0.14310295,0.14573930,0.14791886,0.14948184,0.15002245,0.14892274,0.14601266,0.14184611,0.13705344,0.13252833,0.12874145,0.12577473,0.12286367,0.11938680,0.11498230,0.11111885,0.10829696,0.10521941,0.10140186,0.09759176,0.09397052,0.09108770,0.08805064,0.08488628,0.08130365,0.07805607,0.07462053
0.51596949,0.51884873,0.52085536,0.52301718,0.52494719,0.52669934,0.52799155,0.52904015,0.52969132,0.53016989,0.53015977,0.52985859,0.52927715,0.52830291,0.52712901,0.52531782,0.52184420,0.51513255,0.50497683,0.49423828,0.48655711,0.48236391,0.48003064,0.47802143,0.47635074,0.47576247,0.47621852,0.47756872,0.47968165,0.48175419,0.48365999,0.48527379,0.48651318,0.48724632,0.48742663,0.48695123,0.48558076,0.48305733,0.47907162,0.47332194,0.46531647,0.45510301,0.44327213,0.43110836,0.42003759,0.40959766,0.39704713,0.37736719,0.34360481,0.29508250,0.24319568,0.20092602,0.17238067,0.15468449,0.14405420,0.13816636,0.13551485,0.13497075,0.13658622,0.14115551,0.14845432,0.15748558,0.16759547,0.17819688,0.18909539,0.20002300,0.21062578,0.22083155,0.23058033,0.23982361,0.24842166,0.25635216,0.26367648,0.27052918,0.27695350,0.28309935,0.28887167,0.29406491,0.29862602,0.30242922,0.30536143,0.30700934,0.30709756,0.30642687,0.30611023,0.30592994,0.30487115,0.30290567,0.30030731,0.29677020,0.29280164,0.28894456,0.28565767,0.28189861,0.27719692,0.27217735,0.26792957,0.26472870,0.26284024,0.26227024,0.26290842,0.26691528,0.26800143,0.26860095,0.26808962,0.26548916,0.25907564,0.24628366,0.22415100,0.19044089,0.14697927,0.10322721,0.06964957,0.05120010,0.04314746,0.03989553,0.03871664,0.03862379,0.03936772,0.04074339,0.04264592,0.04507793,0.04806182,0.05151852,0.05541225,0.05968213,0.06425751,0.06894155,0.07359035,0.07803545,0.08222154,0.08615222,0.08999868,0.09404825,0.09820317,0.10228643,0.10624528,0.10997260,0.11357033,0.11691596,0.12002597,0.12281069,0.12544487,0.12811614,0.13122948,0.13429252,0.13709597,0.14004058,0.14301038,0.14586972,0.14860583,0.15093039,0.15267349,0.15327613,0.15206198,0.14897041,0.14441629,0.13934877,0.13455496,0.13063008,0.12767114,0.12484926,0.12123980,0.11669085,0.11277385,0.11006260,0.10690839,0.10303060,0.09913632,0.09557079,0.09268097,0.08966172,0.08634398,0.08280828,0.07935735,0.07586287
0.42240518,0.42553590,0.42711108,0.42866446,0.43003792,0.43121866,0.43219116,0.43302357,0.43378352,0.43422753,0.43454706,0.43448043,0.43423460,0.43360375,0.43283337,0.43159861,0.42931671,0.42458153,0.41697575,0.40873569,0.40279214,0.39952820,0.39758679,0.39583535,0.39440001,0.39370874,0.39378421,0.39490352,0.39731362,0.39989663,0.40192172,0.40352233,0.40477099,0.40558547,0.40577560,0.40552398,0.40466850,0.40298846,0.40016759,0.39584767,0.38977383,0.38190825,0.37261629,0.36289765,0.35397125,0.34543774,0.33517591,0.31892827,0.29103574,0.25028764,0.20636990,0.17054435,0.14668948,0.13233048,0.12392822,0.11944656,0.11751296,0.11723270,0.11875337,0.12282682,0.12921881,0.13707691,0.14576307,0.15493493,0.16430825,0.17364244,0.18276437,0.19148625,0.19980220,0.20767208,0.21500210,0.22170828,0.22792044,0.23382450,0.23942617,0.24479073,0.24981346,0.25436898,0.25836243,0.26174472,0.26435517,0.26584387,0.26615852,0.26573581,0.26520929,0.26394116,0.26138112,0.25794012,0.25400411,0.24948309,0.24497347,0.24096312,0.23941399,0.23832314,0.23480263,0.23032397,0.22687585,0.22504022,0.22398872,0.22373321,0.22428358,0.22508678,0.22618210,0.22675733,0.22650622,0.22446605,0.21909865,0.20804944,0.18894418,0.15979987,0.12273529,0.08617615,0.05914869,0.04475431,0.03870038,0.03617527,0.03525304,0.03524276,0.03590549,0.03706664,0.03870850,0.04071182,0.04321610,0.04610888,0.04934946,0.05284774,0.05655992,0.06033881,0.06405324,0.06757283,0.07077908,0.07373708,0.07665597,0.07977850,0.08303394,0.08635012,0.08961559,0.09271237,0.09572581,0.09861915,0.10134435,0.10384547,0.10610374,0.10834946,0.11073089,0.11290914,0.11488405,0.11704973,0.11936063,0.12162522,0.12370160,0.12546088,0.12661267,0.12663534,0.12484159,0.12128638,0.11648539,0.11140368,0.10663604,0.10263724,0.09967935,0.09686307,0.09317210,0.08843652,0.08462933,0.08406429,0.08316963,0.08049524,0.07733043,0.07443796,0.07303619,0.07137676,0.06882305,0.06615930,0.06369527,0.06131437
0.43073429,0.43400908,0.43541530,0.43693545,0.43812912,0.43929226,0.44018939,0.44102715,0.44167763,0.44216225,0.44235662,0.44237049,0.44203237,0.44147394,0.44067843,0.43944844,0.43720922,0.43271437,0.42536548,0.41742030,0.41148773,0.40805763,0.40599198,0.40406145,0.40245402,0.40157922,0.40153918,0.40259517,0.40498875,0.40749526,0.40953913,0.41109753,0.41228340,0.41307453,0.41328016,0.41306240,0.41228817,0.41065903,0.40792566,0.40379547,0.39789377,0.39023695,0.38123120,0.37183037,0.36314165,0.35494436,0.34500742,0.32932102,0.30212283,0.26189063,0.21786687,0.18128535,0.15632675,0.14090278,0.13161245,0.12637557,0.12392553,0.12331485,0.12464060,0.12853629,0.13486712,0.14273207,0.15148522,0.16067398,0.17014728,0.17955515,0.18872212,0.19747035,0.20581379,0.21369472,0.22102409,0.22775838,0.23402724,0.23990163,0.24552010,0.25089339,0.25594353,0.26055122,0.26453194,0.26793729,0.27059326,0.27209317,0.27241375,0.27197378,0.27142491,0.27016937,0.26755157,0.26404107,0.26003552,0.25545095,0.25097545,0.24703237,0.24563462,0.24476802,0.24140969,0.23706875,0.23370061,0.23211332,0.23123915,0.23122415,0.23195368,0.23287214,0.23405480,0.23479844,0.23471082,0.23289852,0.22769156,0.21686278,0.19784268,0.16856999,0.13058934,0.09235010,0.06323041,0.04720066,0.04016026,0.03719189,0.03602167,0.03592402,0.03660389,0.03787177,0.03961012,0.04187427,0.04457863,0.04769798,0.05117542,0.05491876,0.05881528,0.06284265,0.06673563,0.07039362,0.07373652,0.07679018,0.07976761,0.08303376,0.08647896,0.08988349,0.09323861,0.09649814,0.09957270,0.10256444,0.10542155,0.10796531,0.11027144,0.11261161,0.11501899,0.11730804,0.11941040,0.12166595,0.12406577,0.12650290,0.12881383,0.13068645,0.13189868,0.13203096,0.13031137,0.12660690,0.12157479,0.11617551,0.11121420,0.10707367,0.10395317,0.10099128,0.09709228,0.09221733,0.08821778,0.08776022,0.08689753,0.08412421,0.08089603,0.07790961,0.07648947,0.07460830,0.07217890,0.06936965,0.06676897,0.06422039
0.44103449,0.44495096,0.44637342,0.44778333,0.44896898,0.45008653,0.45089499,0.45169895,0.45236790,0.45282003,0.45305915,0.45305392,0.45272069,0.45223996,0.45136958,0.45022248,0.44808022,0.44379891,0.43688774,0.42921899,0.42343268,0.42000610,0.41789219,0.41588860,0.41429474,0.41347791,0.41342252,0.41449804,0.41688174,0.41944924,0.42146514,0.42303789,0.42420397,0.42490006,0.42511306,0.42494207,0.42428803,0.42281896,0.42029769,0.41644756,0.41090140,0.40360198,0.39494759,0.38581794,0.37731807,0.36931197,0.35972316,0.34462992,0.31835084,0.27887811,0.23488114,0.19737349,0.17116429,0.15473810,0.14482079,0.13925268,0.13670939,0.13608364,0.13746032,0.14165091,0.14827430,0.15645270,0.16546610,0.17496997,0.18458020,0.19404967,0.20323179,0.21199746,0.22027310,0.22806714,0.23526011,0.24183233,0.24798013,0.25373945,0.25925866,0.26463733,0.26967099,0.27426212,0.27825197,0.28161857,0.28421195,0.28566291,0.28575390,0.28518287,0.28447389,0.28301322,0.28013149,0.27635335,0.27214564,0.26740402,0.26281257,0.25893401,0.25774620,0.25710894,0.25400061,0.24973176,0.24666949,0.24533559,0.24459370,0.24459034,0.24542217,0.24744067,0.24867761,0.24958999,0.24973984,0.24812398,0.24318581,0.23269911,0.21383156,0.18439785,0.14502691,0.10377019,0.07061655,0.05125853,0.04226345,0.03833745,0.03685033,0.03674242,0.03760332,0.03934758,0.04168551,0.04462529,0.04810627,0.05202095,0.05628851,0.06079838,0.06546726,0.07013454,0.07461254,0.07869068,0.08230265,0.08548545,0.08863260,0.09201324,0.09558837,0.09919484,0.10266254,0.10599153,0.10912151,0.11222072,0.11498309,0.11751866,0.11981142,0.12216717,0.12467943,0.12697771,0.12915379,0.13156469,0.13417353,0.13680105,0.13929120,0.14137014,0.14282741,0.14300620,0.14109204,0.13706197,0.13151358,0.12562391,0.12009461,0.11552413,0.11219807,0.10912849,0.10490706,0.09955306,0.09535348,0.09514851,0.09448432,0.09160612,0.08802337,0.08487894,0.08368321,0.08174152,0.07900597,0.07603042,0.07332616,0.07050718
