700.03,702.33,704.62,706.9,709.19,711.48,713.77,716.05,718.34,720.63,722.91,725.19,727.48,729.76,732.04,734.32,736.61,738.89,741.17,743.44,745.72,748,750.28,752.55,754.83,757.1,759.38,761.65,763.92,766.2,768.47,770.74,773.01,775.28,777.55,779.82,782.08,784.35,786.62,788.88,791.15,793.41,795.67,797.94,800.2,802.46,804.72,806.98,809.24,811.5,813.76,816.01,818.27,820.53,822.78,825.04,827.29,829.54,831.8,834.05,836.3,838.55,840.8,843.05,845.3,847.54,849.79,852.04,854.28,856.53,858.77,861.01,863.26,865.5,867.74,869.98,872.22,874.46,876.7,878.93,881.17,883.41,885.64,887.88,890.11,892.34,894.58,896.81,899.04,901.27,903.5,905.73,907.96,910.18,912.41,914.64,916.86,919.09,921.31,923.53,925.75,927.98,930.2,932.42,934.64,936.85,939.07,941.29,943.51,945.72,947.94,950.15,952.36,954.58,956.79,959,961.21,963.42,965.63,967.84,970.04,972.25,974.45,976.66,978.86,981.07,983.27,985.47,987.67,989.87,992.07,994.27,996.47,998.67,1000.86,1003.06,1005.25,1007.45,1009.64,1011.83,1014.02,1016.22,1018.41,1020.6,1022.78,1024.97,1027.16,1029.35,1031.53,1033.72,1035.9,1038.08,1040.26,1042.45,1044.63,1046.81,1048.99
0.51501667,0.51609333,0.51666000,0.51760667,0.51875667,0.51863333,0.52003000,0.52112000,0.52158333,0.52284333,0.52381000,0.52438000,0.52579333,0.52666333,0.52784000,0.52860667,0.53002333,0.53096000,0.53119000,0.53242000,0.53347333,0.53408333,0.53540667,0.53680000,0.53789667,0.53865000,0.53981333,0.54116000,0.54165000,0.54268333,0.54362000,0.54537000,0.54627000,0.54703000,0.54795667,0.54888667,0.54939000,0.55144000,0.55154000,0.55258667,0.55439333,0.55491667,0.55673667,0.55719000,0.55849667,0.56017000,0.56146667,0.56256000,0.56399333,0.56506333,0.56588667,0.56754000,0.56891000,0.56968000,0.57075667,0.57229667,0.57352333,0.57456000,0.57697000,0.57804667,0.57900000,0.58076000,0.58172000,0.58241667,0.58425333,0.58530000,0.58698333,0.58860000,0.58928667,0.59097333,0.59209667,0.59386667,0.59496333,0.59719333,0.59803667,0.59909333,0.60082000,0.60266667,0.60423333,0.60587333,0.60704000,0.60860000,0.61017667,0.61218000,0.61321667,0.61493333,0.61656333,0.61912000,0.62168667,0.62259333,0.62365667,0.62590333,0.62834667,0.62927667,0.63036667,0.63214333,0.63411000,0.63517667,0.63638667,0.63938667,0.64135333,0.64270667,0.64429333,0.64679000,0.64933667,0.65098000,0.65399333,0.65571333,0.65920667,0.66136333,0.66486333,0.66768667,0.67246000,0.67724000,0.67957000,0.68435000,0.68686667,0.68942333,0.69126333,0.69413333,0.69699333,0.69898000,0.70099333,0.70219333,0.70405333,0.70505333,0.70745000,0.70825667,0.70941667,0.70951667,0.71048000,0.71085333,0.71192667,0.71152333,0.71369333,0.71410000,0.71358667,0.71438333,0.71462333,0.71521667,0.71660000,0.71592333,0.71671333,0.71669667,0.71659667,0.71617000,0.71618333,0.71619000,0.71684000,0.71778667,0.71674667,0.71699667,0.71823333,0.71827000,0.71892000,0.71701333,0.71890000
0.50109000,0.50008667,0.49916333,0.49750667,0.49671667,0.49578000,0.49566667,0.49521333,0.49519000,0.49510333,0.49502333,0.49471000,0.49567333,0.49531667,0.49620000,0.49625667,0.49752333,0.49859000,0.49879333,0.49990667,0.50060000,0.50125333,0.50224667,0.50402667,0.50479667,0.50582333,0.50694333,0.50734667,0.50768667,0.50816000,0.50843667,0.50986333,0.50978667,0.50957667,0.51038333,0.51119333,0.51204333,0.51297333,0.51306000,0.51365667,0.51514333,0.51617667,0.51721000,0.51768667,0.51952000,0.52019000,0.52104333,0.52197667,0.52339000,0.52351667,0.52523333,0.52620667,0.52747667,0.52856667,0.52909000,0.53080333,0.53232000,0.53305333,0.53457667,0.53589333,0.53659667,0.53863333,0.53896667,0.54022667,0.54186667,0.54276000,0.54451000,0.54528000,0.54697333,0.54818000,0.54989000,0.55120333,0.55245333,0.55386000,0.55509000,0.55569333,0.55818000,0.55910333,0.56036333,0.56221667,0.56328333,0.56504667,0.56623000,0.56806667,0.56918333,0.57119000,0.57287000,0.57574333,0.57731333,0.57914000,0.57981333,0.58219667,0.58357000,0.58459667,0.58602333,0.58737667,0.58923667,0.58956000,0.59144333,0.59356333,0.59564000,0.59674000,0.59865333,0.60137000,0.60318667,0.60575000,0.60853000,0.61097333,0.61359333,0.61579000,0.61920000,0.62218000,0.62767000,0.63211000,0.63495333,0.63853000,0.64168667,0.64476667,0.64608000,0.64919000,0.65155000,0.65405333,0.65582000,0.65739333,0.65862000,0.66051333,0.66081333,0.66337000,0.66404333,0.66518667,0.66560667,0.66724000,0.66699333,0.66754667,0.66910667,0.66904667,0.66908667,0.67031667,0.67064000,0.67040333,0.67144000,0.67200667,0.67206667,0.67224667,0.67220000,0.67171333,0.67175000,0.67217667,0.67242333,0.67208333,0.67202000,0.67240667,0.67438667,0.67386667,0.67445667,0.67397667,0.67476667
0.50919000,0.51024333,0.51029333,0.51092667,0.51145333,0.51125000,0.51217333,0.51302667,0.51355000,0.51395333,0.51515333,0.51557000,0.51688000,0.51777000,0.51833000,0.51917667,0.52062333,0.52150000,0.52224000,0.52328667,0.52459333,0.52563667,0.52663333,0.52844667,0.52923333,0.52993667,0.53170000,0.53273667,0.53226000,0.53366667,0.53407000,0.53537333,0.53544667,0.53583667,0.53713333,0.53773667,0.53811000,0.53987667,0.53978667,0.54133333,0.54213333,0.54297333,0.54454333,0.54518667,0.54619333,0.54759333,0.54857333,0.54982000,0.55131667,0.55202000,0.55297667,0.55471000,0.55536333,0.55645667,0.55754333,0.55952000,0.56043667,0.56139333,0.56374333,0.56488667,0.56566333,0.56739333,0.56819667,0.56925333,0.57065333,0.57183667,0.57329000,0.57496000,0.57590000,0.57774667,0.57864000,0.58039000,0.58155333,0.58378333,0.58517333,0.58594333,0.58740333,0.58975333,0.59071333,0.59230333,0.59421333,0.59562000,0.59733333,0.59892000,0.60049333,0.60276667,0.60429667,0.60700000,0.60868667,0.61053667,0.61094667,0.61343000,0.61507000,0.61632000,0.61816000,0.61937000,0.62066000,0.62210000,0.62290333,0.62563333,0.62724000,0.62915333,0.63085333,0.63328667,0.63571667,0.63840333,0.64041667,0.64328667,0.64623000,0.64910000,0.65273000,0.65632333,0.66138667,0.66572000,0.66780000,0.67265667,0.67573000,0.67885333,0.68059000,0.68351333,0.68654333,0.68838667,0.69085667,0.69198333,0.69394333,0.69516667,0.69671000,0.69869667,0.69967333,0.69997667,0.70086667,0.70043667,0.70256333,0.70275667,0.70271667,0.70406000,0.70440000,0.70526333,0.70592333,0.70532667,0.70688667,0.70803333,0.70679667,0.70666667,0.70678333,0.70784667,0.70746333,0.70711667,0.70817000,0.70764000,0.70767667,0.70739333,0.70905000,0.70861333,0.70836333,0.70793667,0.70926667
0.42444000,0.42498333,0.42507333,0.42628000,0.42635000,0.42685667,0.42823333,0.42828333,0.42944667,0.42991333,0.43123667,0.43138333,0.43291000,0.43293333,0.43457000,0.43552000,0.43660333,0.43771333,0.43852333,0.43990667,0.44033000,0.44181000,0.44288667,0.44394000,0.44498333,0.44565667,0.44586000,0.44747667,0.44834667,0.44950000,0.44974000,0.45123667,0.45258667,0.45307000,0.45391000,0.45460667,0.45564333,0.45730000,0.45739333,0.45878000,0.45970667,0.46099333,0.46197000,0.46349333,0.46494333,0.46577667,0.46715333,0.46896000,0.46952667,0.47027667,0.47227000,0.47274000,0.47437000,0.47597000,0.47646333,0.47835667,0.47946333,0.48127000,0.48229000,0.48345000,0.48485333,0.48629667,0.48778333,0.48934000,0.48999000,0.49087333,0.49275667,0.49405333,0.49583667,0.49717000,0.49861000,0.49993667,0.50081333,0.50322667,0.50522667,0.50590333,0.50765000,0.50934000,0.51119333,0.51165667,0.51451333,0.51628000,0.51760667,0.51910333,0.52213667,0.52346333,0.52499667,0.52703667,0.52871667,0.53086333,0.53199000,0.53444333,0.53680667,0.53775000,0.53909333,0.54040333,0.54279667,0.54410667,0.54601000,0.54732333,0.54979333,0.55203000,0.55360667,0.55533000,0.55762667,0.55910000,0.56148667,0.56365667,0.56694000,0.56906667,0.57209667,0.57438667,0.57884667,0.58341667,0.58567333,0.58909333,0.59273333,0.59580333,0.59792000,0.59975667,0.60154000,0.60375333,0.60637000,0.60824000,0.60858333,0.61156667,0.61205333,0.61354000,0.61415333,0.61541000,0.61640000,0.61760000,0.61820333,0.61844333,0.61875667,0.61885000,0.62081000,0.62034000,0.62128333,0.62217333,0.62301667,0.62206667,0.62231333,0.62341000,0.62396667,0.62386667,0.62347667,0.62338667,0.62334667,0.62423000,0.62482667,0.62351667,0.62439333,0.62565000,0.62576000,0.62563000,0.62700333
0.51872333,0.51983000,0.52083333,0.52227333,0.52272667,0.52435000,0.52574000,0.52732333,0.52857667,0.52938000,0.53133333,0.53195000,0.53424000,0.53529667,0.53671000,0.53741667,0.53996333,0.54117667,0.54181667,0.54389333,0.54491000,0.54627333,0.54735000,0.54934667,0.55008333,0.55181667,0.55385000,0.55498000,0.55544000,0.55675667,0.55788000,0.55962667,0.56103000,0.56197000,0.56319667,0.56406333,0.56535333,0.56696667,0.56794667,0.56921000,0.57073000,0.57177333,0.57359000,0.57442667,0.57647333,0.57736333,0.57904667,0.58044667,0.58156667,0.58291333,0.58393333,0.58556333,0.58736333,0.58889333,0.58878000,0.59130667,0.59258000,0.59369333,0.59623333,0.59703667,0.59907667,0.60007000,0.60157000,0.60346667,0.60443000,0.60575000,0.60743333,0.60940000,0.61033000,0.61257333,0.61368000,0.61558000,0.61651000,0.61878000,0.62036667,0.62131000,0.62277667,0.62507333,0.62645333,0.62814000,0.62975333,0.63111000,0.63362333,0.63512000,0.63637000,0.63878000,0.64079667,0.64347000,0.64469000,0.64723000,0.64796333,0.65069333,0.65291667,0.65392000,0.65489000,0.65720000,0.65932000,0.66006000,0.66151333,0.66438000,0.66625333,0.66790333,0.66949667,0.67270333,0.67525333,0.67777667,0.68035333,0.68258667,0.68567667,0.68807000,0.69249000,0.69548333,0.70063333,0.70466333,0.70803000,0.71289000,0.71604000,0.71932667,0.72091667,0.72376333,0.72637000,0.72822333,0.73140333,0.73194000,0.73427667,0.73574333,0.73729333,0.73898667,0.73996333,0.74084667,0.74094000,0.74176333,0.74301000,0.74360667,0.74474000,0.74461667,0.74469000,0.74614667,0.74705333,0.74698000,0.74834667,0.74745333,0.74724667,0.74699667,0.74817333,0.74800000,0.74747000,0.74802000,0.74915667,0.74867000,0.74811333,0.74823333,0.74978333,0.74979667,0.74910333,0.74819000,0.75012333
0.47842000,0.47870667,0.47829667,0.47868667,0.47857000,0.47925000,0.47906667,0.47975333,0.48023000,0.48080667,0.48159333,0.48169333,0.48264333,0.48335000,0.48469333,0.48516333,0.48573333,0.48735000,0.48762333,0.48877333,0.48952333,0.49070333,0.49132667,0.49226667,0.49356333,0.49429333,0.49550667,0.49597333,0.49665333,0.49810333,0.49862000,0.49974667,0.50067000,0.50041000,0.50154333,0.50230667,0.50307000,0.50414000,0.50454333,0.50529667,0.50603667,0.50715333,0.50825333,0.50898667,0.51016000,0.51107000,0.51224333,0.51395000,0.51409667,0.51541667,0.51614000,0.51746000,0.51870667,0.51940000,0.52106667,0.52174333,0.52343667,0.52407333,0.52548333,0.52614000,0.52796000,0.52823667,0.52946333,0.53078333,0.53169000,0.53300333,0.53365000,0.53489333,0.53621000,0.53771333,0.53804667,0.53963000,0.54122667,0.54278000,0.54451667,0.54512000,0.54652667,0.54749667,0.54991000,0.54964333,0.55191333,0.55329333,0.55403333,0.55641667,0.55776000,0.55925333,0.56079333,0.56189333,0.56422667,0.56621333,0.56721667,0.56946000,0.57063333,0.57109333,0.57277333,0.57377667,0.57488000,0.57647000,0.57812333,0.58018000,0.58140000,0.58349333,0.58519667,0.58737000,0.58968667,0.59248667,0.59440333,0.59795000,0.60022667,0.60391333,0.60679333,0.61047333,0.61538333,0.62009333,0.62361333,0.62764667,0.63002333,0.63315667,0.63706000,0.63818333,0.64058667,0.64269000,0.64351333,0.64580333,0.64723667,0.64884333,0.64935667,0.65156333,0.65175667,0.65276667,0.65343333,0.65334333,0.65482667,0.65504000,0.65414667,0.65554667,0.65642000,0.65486667,0.65628333,0.65671667,0.65758333,0.65738333,0.65606333,0.65635667,0.65596333,0.65662000,0.65694667,0.65547667,0.65582667,0.65603333,0.65560333,0.65596000,0.65654000,0.65514667,0.65538667,0.65424667,0.65569667
0.44898333,0.44848667,0.44936000,0.45056333,0.45101333,0.45161333,0.45284333,0.45367000,0.45468000,0.45540333,0.45647333,0.45668333,0.45807333,0.45918667,0.46081667,0.46200000,0.46289333,0.46456000,0.46535000,0.46729333,0.46747000,0.46900000,0.47004667,0.47136000,0.47329333,0.47356333,0.47474333,0.47574667,0.47640667,0.47653000,0.47689000,0.47835667,0.47892000,0.47859333,0.47915333,0.47965667,0.47986000,0.48098667,0.48136000,0.48254000,0.48317333,0.48381667,0.48510667,0.48621000,0.48718000,0.48798667,0.48860333,0.48995333,0.49076667,0.49169667,0.49308333,0.49429333,0.49481000,0.49682333,0.49692000,0.49869333,0.50007333,0.50175000,0.50283333,0.50399667,0.50451667,0.50612333,0.50726333,0.50913000,0.50919000,0.51034333,0.51226667,0.51304667,0.51466333,0.51603000,0.51693667,0.51865333,0.51958000,0.52157000,0.52291000,0.52470333,0.52542667,0.52687333,0.52854333,0.52964333,0.53233333,0.53352000,0.53484000,0.53602667,0.53842000,0.53974333,0.54178333,0.54382333,0.54491000,0.54746000,0.54814667,0.55012667,0.55238667,0.55379667,0.55386000,0.55544333,0.55801333,0.55872000,0.56070000,0.56140333,0.56444333,0.56723333,0.56856333,0.57069667,0.57386000,0.57636333,0.57883667,0.58187000,0.58580667,0.58935667,0.59316000,0.59702667,0.60276333,0.60804667,0.61212333,0.61614667,0.61962667,0.62336333,0.62628000,0.62811333,0.63046333,0.63279667,0.63463333,0.63605333,0.63730000,0.63847000,0.63946333,0.64025333,0.64078000,0.64078667,0.64175667,0.64263000,0.64257333,0.64293333,0.64201333,0.64214333,0.64299000,0.64198000,0.64213000,0.64205333,0.64249667,0.64126333,0.64095333,0.64156667,0.64101000,0.64034000,0.63941333,0.63900667,0.63917667,0.63938333,0.63880667,0.63850667,0.63899333,0.63915667,0.63929000,0.63860333,0.63911333
0.50826333,0.50993667,0.51176667,0.51363000,0.51531667,0.51720333,0.51974333,0.52040000,0.52262333,0.52463333,0.52699667,0.52736333,0.52992000,0.53189000,0.53407000,0.53601667,0.53749333,0.54046667,0.54117333,0.54303000,0.54461333,0.54602000,0.54778667,0.54959333,0.55120333,0.55232667,0.55415333,0.55634333,0.55711333,0.56032333,0.55972000,0.56164333,0.56423000,0.56465000,0.56726667,0.56793333,0.56942667,0.57146000,0.57160333,0.57370333,0.57549000,0.57656000,0.57854000,0.58040667,0.58094333,0.58389000,0.58404000,0.58590667,0.58830667,0.58875333,0.59141333,0.59320667,0.59405000,0.59580333,0.59809000,0.59927333,0.60095000,0.60293000,0.60388000,0.60640667,0.60811667,0.60936000,0.61126667,0.61209333,0.61416333,0.61585333,0.61754667,0.61924333,0.62038333,0.62218000,0.62403667,0.62556333,0.62714333,0.62941667,0.63120333,0.63222333,0.63394667,0.63632000,0.63901333,0.63854667,0.64078000,0.64421000,0.64556333,0.64620667,0.64931667,0.65076333,0.65322333,0.65381333,0.65710333,0.65991333,0.66001333,0.66261000,0.66493000,0.66653000,0.66708333,0.66876667,0.67144333,0.67357000,0.67457667,0.67714000,0.68036333,0.68278000,0.68434333,0.68599000,0.69044333,0.69338000,0.69494000,0.69731333,0.70172667,0.70536667,0.70915667,0.71319000,0.71859000,0.72389333,0.72917667,0.73219333,0.73648333,0.73967667,0.74320000,0.74468333,0.74702000,0.74886667,0.75058667,0.75264667,0.75383667,0.75508333,0.75690667,0.75655000,0.75893667,0.75910333,0.75886000,0.76021000,0.76003667,0.75974000,0.76016667,0.75930667,0.75909333,0.75859333,0.75958000,0.75776000,0.75921333,0.75789000,0.75792000,0.75706000,0.75709000,0.75399333,0.75506667,0.75454000,0.75340667,0.75203333,0.75269000,0.75124000,0.75122333,0.75163333,0.75111333,0.74867667,0.74943333
0.39757000,0.39958667,0.40123000,0.40389667,0.40591667,0.40807000,0.41091333,0.41322667,0.41519000,0.41777667,0.42023000,0.42224000,0.42439333,0.42671667,0.42973333,0.43249333,0.43525667,0.43743333,0.43910333,0.44249000,0.44392333,0.44608333,0.44898667,0.45079000,0.45312333,0.45504000,0.45703000,0.45957333,0.46186333,0.46395667,0.46511000,0.46762000,0.46954333,0.47077000,0.47314333,0.47439667,0.47608333,0.47840667,0.47988333,0.48205667,0.48368667,0.48579667,0.48770000,0.48945333,0.49206333,0.49403333,0.49548000,0.49771667,0.49965000,0.50086000,0.50389667,0.50545000,0.50742333,0.50954333,0.51083667,0.51369667,0.51555333,0.51788667,0.51973000,0.52196333,0.52407333,0.52614667,0.52871333,0.53004667,0.53186000,0.53372333,0.53628333,0.53810667,0.54052000,0.54235000,0.54434333,0.54672667,0.54778333,0.55045333,0.55236333,0.55454000,0.55668667,0.55830333,0.56151000,0.56222000,0.56535000,0.56817000,0.56996333,0.57210000,0.57471000,0.57701000,0.57900000,0.58104667,0.58396000,0.58643667,0.58858667,0.59053000,0.59321000,0.59472000,0.59680333,0.59873000,0.60214667,0.60335667,0.60524000,0.60750333,0.61077000,0.61447000,0.61617000,0.61928667,0.62281000,0.62699333,0.63004667,0.63344000,0.63813000,0.64209000,0.64708333,0.65114333,0.65788000,0.66380667,0.66885000,0.67332667,0.67732333,0.68127333,0.68544000,0.68692000,0.68968333,0.69305333,0.69489667,0.69655667,0.69784000,0.70014000,0.70147333,0.70226333,0.70351000,0.70451333,0.70565000,0.70549333,0.70659333,0.70663000,0.70587000,0.70694667,0.70751333,0.70643333,0.70612333,0.70692000,0.70737000,0.70610000,0.70521000,0.70743000,0.70630667,0.70554333,0.70592667,0.70463667,0.70419667,0.70559667,0.70549333,0.70506333,0.70532667,0.70549000,0.70467667,0.70540667,0.70546000
0.40783333,0.40911333,0.41139000,0.41343667,0.41534667,0.41719333,0.41992000,0.42186333,0.42371667,0.42599333,0.42840667,0.42986333,0.43274667,0.43468667,0.43763333,0.43969667,0.44251667,0.44473000,0.44645000,0.44948333,0.45144000,0.45337000,0.45604333,0.45796000,0.46009000,0.46239333,0.46426000,0.46675667,0.46862000,0.46981000,0.47114000,0.47447667,0.47611667,0.47746333,0.47967000,0.48138000,0.48304000,0.48529333,0.48627333,0.48870667,0.49120667,0.49225000,0.49463333,0.49639000,0.49903333,0.50107333,0.50267000,0.50455333,0.50685667,0.50803333,0.51113667,0.51283667,0.51455667,0.51723000,0.51839333,0.52105333,0.52304333,0.52510000,0.52772667,0.52938333,0.53166667,0.53400333,0.53605333,0.53791000,0.53961333,0.54149333,0.54435000,0.54654667,0.54867000,0.54997333,0.55225333,0.55415000,0.55588333,0.55902667,0.56087667,0.56339333,0.56496000,0.56661333,0.56968333,0.57100667,0.57492000,0.57690000,0.57915333,0.58094000,0.58398667,0.58618333,0.58900333,0.59090333,0.59333333,0.59551667,0.59738333,0.60033000,0.60286333,0.60426667,0.60631667,0.60871667,0.61078333,0.61305000,0.61528333,0.61734000,0.62030667,0.62381667,0.62647000,0.63002333,0.63300667,0.63697667,0.64075333,0.64415000,0.64828333,0.65364000,0.65834667,0.66330000,0.66960667,0.67715667,0.68126000,0.68674667,0.69158667,0.69514000,0.69895000,0.70174000,0.70389333,0.70677000,0.70922667,0.71094333,0.71285667,0.71455667,0.71643333,0.71686000,0.71855667,0.71881667,0.71918667,0.72045000,0.72140667,0.72092000,0.72055667,0.72083667,0.72159667,0.72096667,0.72123333,0.72154667,0.72139000,0.72048333,0.72018667,0.72111333,0.72032333,0.72065333,0.72050667,0.71908667,0.71935000,0.71932000,0.72011667,0.71888667,0.71897667,0.71926000,0.72021000,0.71867667,0.71892333
0.47408333,0.47423000,0.47553667,0.47655000,0.47708000,0.47794333,0.47889000,0.47945667,0.48109000,0.48119667,0.48253333,0.48413333,0.48541667,0.48619000,0.48726333,0.48930667,0.48990333,0.49190667,0.49310667,0.49403667,0.49475000,0.49618333,0.49752000,0.49920333,0.50116667,0.50182333,0.50295667,0.50426333,0.50468667,0.50601667,0.50689333,0.50723000,0.50826333,0.50895667,0.50954000,0.51045667,0.51088000,0.51283667,0.51307333,0.51344333,0.51542667,0.51590333,0.51760000,0.51809333,0.51908333,0.52115667,0.52190000,0.52234000,0.52494333,0.52474667,0.52686333,0.52804333,0.52894333,0.53133333,0.53252333,0.53404000,0.53541667,0.53688667,0.53807000,0.53974000,0.54198333,0.54284000,0.54394333,0.54567000,0.54696333,0.54808000,0.54973000,0.55012333,0.55278333,0.55325333,0.55597000,0.55758667,0.55787333,0.56053000,0.56173667,0.56308000,0.56469333,0.56690667,0.56889667,0.56983000,0.57193000,0.57328667,0.57504000,0.57639667,0.57999667,0.58165667,0.58284000,0.58458000,0.58684333,0.58952667,0.58950000,0.59192333,0.59368000,0.59532000,0.59592667,0.59788000,0.60058667,0.60168333,0.60185333,0.60478333,0.60773000,0.60915667,0.61126333,0.61241333,0.61791333,0.61955667,0.62186333,0.62401333,0.63030000,0.63252000,0.63627667,0.63958000,0.64523000,0.65014333,0.65569667,0.65819000,0.66310333,0.66664333,0.66869333,0.67075333,0.67223000,0.67461000,0.67676667,0.67905333,0.68013333,0.68029333,0.68210667,0.68309000,0.68445000,0.68487667,0.68468667,0.68592000,0.68601667,0.68624667,0.68503000,0.68572000,0.68532333,0.68552000,0.68589333,0.68557000,0.68540333,0.68457000,0.68468667,0.68566667,0.68306000,0.68458000,0.68355333,0.68264000,0.68256667,0.68337333,0.68185000,0.68082333,0.68077667,0.68111333,0.68016333,0.67950667,0.67972000
0.59877667,0.59919000,0.60040333,0.60021667,0.60123333,0.60197667,0.60244000,0.60317000,0.60446667,0.60506667,0.60597333,0.60620000,0.60731667,0.60859667,0.60912333,0.61027667,0.61149667,0.61171000,0.61286000,0.61415667,0.61432667,0.61565000,0.61662667,0.61736667,0.61885333,0.61970333,0.62115667,0.62215333,0.62236667,0.62229000,0.62251000,0.62341333,0.62332333,0.62389333,0.62499667,0.62463000,0.62612000,0.62607000,0.62650333,0.62767667,0.62781667,0.62883000,0.62947333,0.63029333,0.63040667,0.63175000,0.63234333,0.63292333,0.63530667,0.63570333,0.63759667,0.63722000,0.63878000,0.63962000,0.64157000,0.64211333,0.64300333,0.64451667,0.64577667,0.64696333,0.64812000,0.64886333,0.64994000,0.65182667,0.65247000,0.65319667,0.65361000,0.65526333,0.65672000,0.65734333,0.65902000,0.66019333,0.66136000,0.66284667,0.66406000,0.66518000,0.66709667,0.66765000,0.66999667,0.67108667,0.67260333,0.67333000,0.67457667,0.67665333,0.67855333,0.68029667,0.68246667,0.68386000,0.68628000,0.68782667,0.68842000,0.69102000,0.69281667,0.69377333,0.69499333,0.69603667,0.69830333,0.69901667,0.70029667,0.70241000,0.70454667,0.70690667,0.70830667,0.71090000,0.71386667,0.71606000,0.71780333,0.72162000,0.72557333,0.72818667,0.73201333,0.73629333,0.74172333,0.74663000,0.75046000,0.75501000,0.75910333,0.76115000,0.76551333,0.76595667,0.76888333,0.77182333,0.77386333,0.77492000,0.77572000,0.77811333,0.77842000,0.77865667,0.77997667,0.78129667,0.78059667,0.78090000,0.78182667,0.78108333,0.78141000,0.78149333,0.78135667,0.78054000,0.78217000,0.78084667,0.77953667,0.78060333,0.78085333,0.78007000,0.77860667,0.77809333,0.77898000,0.77784000,0.77669333,0.77653333,0.77781333,0.77733000,0.77674000,0.77614667,0.77654333,0.77555667,0.77623333
0.51028667,0.51114000,0.51166333,0.51258000,0.51252333,0.51301000,0.51431667,0.51453000,0.51524333,0.51604000,0.51646000,0.51741333,0.51856000,0.51965000,0.52067333,0.52188000,0.52283667,0.52394667,0.52458333,0.52588667,0.52718667,0.52800667,0.52929000,0.53057333,0.53180667,0.53184667,0.53323000,0.53404000,0.53455667,0.53523000,0.53600333,0.53632333,0.53702000,0.53671333,0.53774333,0.53877667,0.53906333,0.54046333,0.54032333,0.54195333,0.54237333,0.54353667,0.54436667,0.54523667,0.54546333,0.54774000,0.54798667,0.54893333,0.55048000,0.55078000,0.55184667,0.55321667,0.55352333,0.55539333,0.55649000,0.55728333,0.55832667,0.55984667,0.56149000,0.56271667,0.56433333,0.56552667,0.56588333,0.56720000,0.56919000,0.56966667,0.57085000,0.57233667,0.57292667,0.57495333,0.57658000,0.57810000,0.57928333,0.58055333,0.58274333,0.58365667,0.58466667,0.58659000,0.58819333,0.58930333,0.59097667,0.59252667,0.59478667,0.59589667,0.59823667,0.59999000,0.60147000,0.60242333,0.60543333,0.60794000,0.60892667,0.60990667,0.61269667,0.61358667,0.61441000,0.61690000,0.61814000,0.61931333,0.62025000,0.62334667,0.62544667,0.62753000,0.62947667,0.63092000,0.63482667,0.63656333,0.63861000,0.64073333,0.64440667,0.64847333,0.65054000,0.65417000,0.66022333,0.66433333,0.66884667,0.67247000,0.67602667,0.67940333,0.68155333,0.68401333,0.68584333,0.68831667,0.68971667,0.69086333,0.69225333,0.69407333,0.69573000,0.69616000,0.69754000,0.69647333,0.69812333,0.69876667,0.69803000,0.69979333,0.69927667,0.69924000,0.69885333,0.69870333,0.69899000,0.69769333,0.69801000,0.69960333,0.69757667,0.69772333,0.69667333,0.69607000,0.69716000,0.69539000,0.69582333,0.69488000,0.69461333,0.69375000,0.69358000,0.69351333,0.69313333,0.69161667,0.69178333
0.50335667,0.50483000,0.50626000,0.50755000,0.50836667,0.50994333,0.51155000,0.51231000,0.51429000,0.51516000,0.51618000,0.51802667,0.51938000,0.52078667,0.52240333,0.52431000,0.52530000,0.52769333,0.52846000,0.53014667,0.53140333,0.53215000,0.53390667,0.53498667,0.53675667,0.53772333,0.53946000,0.54076667,0.54151667,0.54285333,0.54326333,0.54443333,0.54543000,0.54538667,0.54684667,0.54802000,0.54870667,0.55053333,0.55040000,0.55247333,0.55351000,0.55417333,0.55546333,0.55681000,0.55745667,0.56016667,0.56012000,0.56130333,0.56306333,0.56327333,0.56502333,0.56667667,0.56720667,0.56863000,0.56975000,0.57114667,0.57261667,0.57435667,0.57541667,0.57730333,0.57810667,0.58033000,0.58045667,0.58189000,0.58397667,0.58510000,0.58630000,0.58811000,0.58891667,0.59000333,0.59179000,0.59391333,0.59544333,0.59678333,0.59791333,0.59902000,0.60024667,0.60227667,0.60430000,0.60555000,0.60733667,0.60904333,0.61003667,0.61137667,0.61453333,0.61611667,0.61799333,0.61897333,0.62239333,0.62474667,0.62526667,0.62563667,0.62938333,0.63051333,0.63070667,0.63287667,0.63491667,0.63591333,0.63704667,0.63900667,0.64142667,0.64412000,0.64577667,0.64792667,0.65177667,0.65377667,0.65591000,0.65883667,0.66322333,0.66696667,0.66965667,0.67271000,0.68021000,0.68463000,0.68910333,0.69253333,0.69618000,0.69933667,0.70303667,0.70468000,0.70681667,0.70928667,0.71096000,0.71364333,0.71422667,0.71604333,0.71686000,0.71643333,0.71879667,0.71686333,0.71919333,0.72009667,0.72025000,0.72073667,0.72103667,0.71911000,0.72019000,0.72004000,0.72063000,0.72031667,0.71871333,0.71948333,0.71829667,0.71857667,0.71753333,0.71812333,0.71684000,0.71556667,0.71617667,0.71514667,0.71404000,0.71338333,0.71342667,0.71178000,0.71238000,0.71315333,0.71269667
0.52684000,0.52857333,0.53013667,0.53226667,0.53376667,0.53599000,0.53819000,0.54045000,0.54204667,0.54376333,0.54584667,0.54776000,0.54991667,0.55173667,0.55440333,0.55608333,0.55863000,0.56040667,0.56207000,0.56364333,0.56536000,0.56782000,0.56915000,0.57152667,0.57293667,0.57444333,0.57685000,0.57845667,0.58064333,0.58147667,0.58292000,0.58485333,0.58612667,0.58769333,0.59011333,0.59104667,0.59339000,0.59451667,0.59560333,0.59735667,0.59895333,0.60139333,0.60242667,0.60468333,0.60602333,0.60788000,0.60930333,0.61161333,0.61262667,0.61455333,0.61644333,0.61789667,0.62042000,0.62131667,0.62294333,0.62524667,0.62753667,0.62914667,0.63072667,0.63292333,0.63492000,0.63549333,0.63770000,0.63950333,0.64100667,0.64272333,0.64498667,0.64719333,0.64761000,0.64939333,0.65127667,0.65244000,0.65477000,0.65691667,0.65861000,0.65999667,0.66198667,0.66442667,0.66599000,0.66765667,0.66966000,0.67242000,0.67346000,0.67591333,0.67794667,0.67909000,0.68207667,0.68437333,0.68613000,0.68810667,0.68980667,0.69314333,0.69453000,0.69635000,0.69856667,0.70085333,0.70264333,0.70412000,0.70658667,0.70965333,0.71213333,0.71463333,0.71758000,0.72063000,0.72303667,0.72733667,0.72922000,0.73386333,0.73740667,0.74161000,0.74735667,0.75252667,0.75837667,0.76378333,0.76943000,0.77527000,0.77830000,0.78260000,0.78472333,0.78750000,0.78975000,0.79248000,0.79435333,0.79668000,0.79837667,0.79955333,0.80033333,0.80142000,0.80286000,0.80252000,0.80360333,0.80409667,0.80445667,0.80362333,0.80478667,0.80366000,0.80304667,0.80391333,0.80572000,0.80380000,0.80286000,0.80449667,0.80403667,0.80266000,0.80351333,0.80040667,0.80170667,0.80128000,0.80060333,0.79986000,0.80082000,0.80017333,0.80061000,0.80078667,0.79994667,0.79948333,0.80023333
0.49040333,0.49262667,0.49452000,0.49555333,0.49755667,0.49892000,0.50078000,0.50229000,0.50571000,0.50580000,0.50785667,0.51064333,0.51204333,0.51389667,0.51566333,0.51911333,0.51997333,0.52284667,0.52460667,0.52613667,0.52731667,0.52906667,0.53086333,0.53263000,0.53543667,0.53615333,0.53837333,0.54064333,0.54134333,0.54279667,0.54387333,0.54559333,0.54712667,0.54781333,0.55005000,0.55161333,0.55220333,0.55458333,0.55567667,0.55646333,0.55868333,0.55971333,0.56226667,0.56290333,0.56424667,0.56655000,0.56700667,0.56858667,0.57164667,0.57172333,0.57446333,0.57577667,0.57683000,0.57848333,0.58107333,0.58291667,0.58457333,0.58681000,0.58795333,0.58996667,0.59184667,0.59412000,0.59543667,0.59677000,0.59879667,0.60072333,0.60184000,0.60362333,0.60602667,0.60752333,0.61000000,0.61176000,0.61254667,0.61552000,0.61624667,0.61872667,0.61962667,0.62226333,0.62475333,0.62570667,0.62804333,0.63005333,0.63244667,0.63378000,0.63690667,0.63937667,0.64074000,0.64218333,0.64584667,0.64720333,0.64791667,0.65094667,0.65333333,0.65502000,0.65489000,0.65808667,0.66129000,0.66309000,0.66362667,0.66720333,0.67054000,0.67355667,0.67545667,0.67753333,0.68315667,0.68506667,0.68910333,0.69201000,0.69837000,0.70286667,0.70673333,0.71223000,0.71947667,0.72601333,0.73357667,0.73651667,0.74198667,0.74565000,0.74929333,0.75078000,0.75288333,0.75535667,0.75873667,0.75999000,0.76057333,0.76094333,0.76376333,0.76415667,0.76571000,0.76414667,0.76443000,0.76435333,0.76543667,0.76550667,0.76371667,0.76375000,0.76287333,0.76295333,0.76297000,0.76100000,0.76008333,0.75813667,0.75868667,0.75794333,0.75533667,0.75545333,0.75557667,0.75383000,0.75380333,0.75208667,0.75060667,0.74870667,0.74993333,0.74878333,0.74683333,0.74700667,0.74733000
0.49339667,0.49476333,0.49538000,0.49698333,0.49839333,0.49948667,0.50094667,0.50239667,0.50334333,0.50569333,0.50700333,0.50860000,0.50994000,0.51241333,0.51361000,0.51572667,0.51738000,0.51940333,0.52091333,0.52301000,0.52493000,0.52634000,0.52802333,0.52898000,0.53158000,0.53303667,0.53497333,0.53603667,0.53769000,0.53952333,0.54074000,0.54295333,0.54330333,0.54491667,0.54647667,0.54800667,0.54897000,0.55174000,0.55223000,0.55483000,0.55570667,0.55721000,0.55933333,0.55971000,0.56166333,0.56341667,0.56541667,0.56710667,0.56852333,0.56975333,0.57209333,0.57327333,0.57471667,0.57683000,0.57770000,0.58032667,0.58159333,0.58434000,0.58625000,0.58767333,0.58923667,0.59072667,0.59282333,0.59499667,0.59611000,0.59810667,0.59989667,0.60136000,0.60381667,0.60483667,0.60707333,0.60856000,0.61008000,0.61194000,0.61500000,0.61627333,0.61799000,0.61968000,0.62156333,0.62344000,0.62502000,0.62732333,0.62962667,0.63118000,0.63352667,0.63583000,0.63744333,0.64055333,0.64265000,0.64478667,0.64660000,0.64851000,0.65098000,0.65231333,0.65411333,0.65659667,0.65741667,0.65945333,0.66125333,0.66379000,0.66669000,0.66814000,0.67112667,0.67508333,0.67743333,0.68144333,0.68414333,0.68824333,0.69219667,0.69701000,0.70063000,0.70688000,0.71254667,0.71815000,0.72317000,0.72776000,0.73239667,0.73700000,0.74008000,0.74164333,0.74499333,0.74740333,0.74944667,0.75219333,0.75400333,0.75544000,0.75554000,0.75786667,0.75820667,0.75909000,0.75962667,0.76032000,0.76069000,0.76100667,0.76101333,0.76189000,0.76135333,0.76200000,0.76296000,0.76040667,0.76203000,0.76318333,0.76059333,0.76211667,0.76301000,0.76230000,0.76070667,0.76111000,0.75951667,0.75972667,0.76056667,0.76119000,0.76107000,0.76128333,0.76012667,0.76181667,0.76190667
0.45997667,0.46173333,0.46434667,0.46582333,0.46704667,0.46892000,0.47135667,0.47257333,0.47494667,0.47674000,0.47854000,0.48071000,0.48271000,0.48452667,0.48595000,0.48860000,0.49008333,0.49250333,0.49395667,0.49635000,0.49839667,0.49963000,0.50136333,0.50322667,0.50552667,0.50598000,0.50836000,0.51045000,0.51116000,0.51321333,0.51424000,0.51553667,0.51718667,0.51795667,0.51989333,0.52058667,0.52181333,0.52404667,0.52412000,0.52694000,0.52762000,0.52904333,0.53094000,0.53160000,0.53297333,0.53594000,0.53603000,0.53875667,0.53975667,0.54094333,0.54286000,0.54473667,0.54555667,0.54775667,0.54962333,0.55125000,0.55289000,0.55456667,0.55657333,0.55799000,0.55999000,0.56185333,0.56226333,0.56405000,0.56669000,0.56802000,0.56968667,0.57148000,0.57274000,0.57458333,0.57615667,0.57856000,0.58030333,0.58215000,0.58395667,0.58535000,0.58648667,0.58917667,0.59063333,0.59264333,0.59453000,0.59684667,0.59899000,0.60012333,0.60249667,0.60503333,0.60662333,0.60811667,0.61172333,0.61419667,0.61496000,0.61642333,0.61973000,0.62127333,0.62156333,0.62480333,0.62675000,0.62802000,0.62943333,0.63213667,0.63480667,0.63737333,0.63936333,0.64140667,0.64610333,0.64909000,0.65129000,0.65427333,0.65923000,0.66349000,0.66700333,0.67090000,0.67777333,0.68398333,0.68880667,0.69205000,0.69677333,0.70032667,0.70369000,0.70562667,0.70750333,0.71130333,0.71224000,0.71500333,0.71564333,0.71773333,0.71971000,0.71932667,0.72047000,0.72008000,0.72183000,0.72184667,0.72137333,0.72318667,0.72295000,0.72223667,0.72282000,0.72180000,0.72277667,0.72206000,0.72078667,0.72174667,0.71971667,0.72018667,0.71822667,0.71963333,0.71877667,0.71744333,0.71772000,0.71680000,0.71488333,0.71468000,0.71440333,0.71402667,0.71451667,0.71329667,0.71332667
0.50524000,0.50658000,0.50766333,0.50801333,0.50882000,0.50993333,0.51113333,0.51202333,0.51323000,0.51414667,0.51540000,0.51638000,0.51756667,0.51896333,0.52007000,0.52181000,0.52341000,0.52492000,0.52566333,0.52727333,0.52802333,0.52888000,0.53052000,0.53219000,0.53298333,0.53378000,0.53557333,0.53654667,0.53668667,0.53864000,0.53846333,0.53970000,0.54066333,0.54063333,0.54187000,0.54238667,0.54267333,0.54432667,0.54445333,0.54620333,0.54649000,0.54777667,0.54908667,0.54940333,0.55021667,0.55269667,0.55256333,0.55415000,0.55597333,0.55593333,0.55740000,0.55908000,0.55958000,0.56051333,0.56190333,0.56304333,0.56476000,0.56622667,0.56737667,0.56901667,0.57002667,0.57200667,0.57152667,0.57337333,0.57530000,0.57571000,0.57726667,0.57890333,0.57944333,0.58075333,0.58275333,0.58384000,0.58604333,0.58691333,0.58865333,0.58965667,0.59085000,0.59311000,0.59433333,0.59530667,0.59741667,0.59939000,0.60081667,0.60159333,0.60399667,0.60606000,0.60727333,0.60912667,0.61222000,0.61366000,0.61453333,0.61574333,0.61852000,0.62007000,0.62008667,0.62271667,0.62469000,0.62530333,0.62677667,0.62905333,0.63080333,0.63334333,0.63498000,0.63677333,0.64094333,0.64260000,0.64391000,0.64780000,0.65124333,0.65487667,0.65734667,0.66036667,0.66660333,0.67175333,0.67527333,0.67974333,0.68299000,0.68687000,0.68913000,0.69112333,0.69268333,0.69510333,0.69670000,0.69852000,0.69954667,0.70098667,0.70172333,0.70228667,0.70325333,0.70274667,0.70494000,0.70495667,0.70471333,0.70575333,0.70533667,0.70365333,0.70446667,0.70478000,0.70477000,0.70363000,0.70309667,0.70360333,0.70290000,0.70278333,0.70132667,0.70218333,0.70066000,0.70001000,0.70054333,0.69949000,0.69857000,0.69747667,0.69616000,0.69655667,0.69731000,0.69723667,0.69614667
0.50355000,0.50532667,0.50640667,0.50747667,0.50815000,0.50852333,0.51048333,0.51048000,0.51167333,0.51262667,0.51346000,0.51490333,0.51636333,0.51739333,0.51849667,0.52022667,0.52120667,0.52279667,0.52370667,0.52531667,0.52659000,0.52718333,0.52900000,0.53036333,0.53144667,0.53205667,0.53367333,0.53464000,0.53477667,0.53609000,0.53701000,0.53765667,0.53901333,0.53846667,0.53949333,0.54016333,0.54132333,0.54215667,0.54243333,0.54393000,0.54450667,0.54566000,0.54701667,0.54760000,0.54807667,0.55066667,0.55088667,0.55153667,0.55367667,0.55387667,0.55510667,0.55659000,0.55690667,0.55833333,0.55967000,0.56117000,0.56286000,0.56427667,0.56571000,0.56710667,0.56781000,0.56983667,0.56987000,0.57133000,0.57321333,0.57385333,0.57555000,0.57682667,0.57741667,0.57909667,0.58057000,0.58210000,0.58341667,0.58518667,0.58694667,0.58821000,0.58905333,0.59065000,0.59283667,0.59313000,0.59551667,0.59726667,0.59879667,0.59986333,0.60211333,0.60431333,0.60587000,0.60696000,0.60975333,0.61200667,0.61270000,0.61411333,0.61669333,0.61834000,0.61825000,0.62112000,0.62320667,0.62383667,0.62505000,0.62722333,0.62928333,0.63169333,0.63359000,0.63506667,0.63865333,0.64079000,0.64286000,0.64540333,0.64973333,0.65301000,0.65651667,0.65900333,0.66589000,0.67060000,0.67439333,0.67816667,0.68205667,0.68557000,0.68746667,0.69016667,0.69157667,0.69458667,0.69519333,0.69754333,0.69817000,0.69999667,0.70099000,0.70101000,0.70213333,0.70156000,0.70330667,0.70381667,0.70295333,0.70491667,0.70440667,0.70291667,0.70323667,0.70274667,0.70349667,0.70199667,0.70222333,0.70291667,0.70096667,0.70168000,0.69996333,0.69950667,0.69952667,0.69854667,0.69849000,0.69777000,0.69610333,0.69512333,0.69675333,0.69544667,0.69529667,0.69393333,0.69480333
0.52528333,0.52663333,0.52863333,0.53054000,0.53241667,0.53480333,0.53733333,0.53859667,0.54138333,0.54290000,0.54505333,0.54681333,0.54924333,0.55159333,0.55384333,0.55609667,0.55815333,0.56093333,0.56218000,0.56445000,0.56648000,0.56829333,0.56997000,0.57265333,0.57434000,0.57585333,0.57794333,0.58035333,0.58171333,0.58365000,0.58445667,0.58574000,0.58900000,0.58950000,0.59224000,0.59315667,0.59519333,0.59793667,0.59778667,0.60044000,0.60285667,0.60443667,0.60650667,0.60795000,0.60955667,0.61226000,0.61268667,0.61517667,0.61713333,0.61834333,0.62049667,0.62303000,0.62444000,0.62588667,0.62778667,0.62979667,0.63188667,0.63354333,0.63577000,0.63703333,0.63952667,0.64139333,0.64318333,0.64504333,0.64651667,0.64894000,0.65035667,0.65294000,0.65350000,0.65542333,0.65773667,0.65928667,0.66093000,0.66351333,0.66518333,0.66675667,0.66915000,0.67095667,0.67334000,0.67453333,0.67658667,0.67948667,0.68067667,0.68235333,0.68498667,0.68702333,0.68910000,0.69107667,0.69329667,0.69606333,0.69667333,0.69958000,0.70222667,0.70411000,0.70428333,0.70745000,0.70978000,0.71152667,0.71330333,0.71530000,0.71948000,0.72160667,0.72403333,0.72639667,0.73031000,0.73412667,0.73657333,0.73978667,0.74465333,0.74847000,0.75377000,0.75786000,0.76430667,0.77137000,0.77607000,0.77983333,0.78412333,0.78860333,0.79138667,0.79297000,0.79569000,0.79781000,0.80047667,0.80121333,0.80381333,0.80373667,0.80581667,0.80567000,0.80772000,0.80692667,0.80759667,0.80809667,0.80837667,0.80899000,0.80821667,0.80691667,0.80605333,0.80760667,0.80704000,0.80559667,0.80496000,0.80616000,0.80424333,0.80275000,0.80291333,0.80083667,0.80009333,0.80007000,0.79900333,0.79653333,0.79796333,0.79728667,0.79695000,0.79640667,0.79576333,0.79370000,0.79383667
0.47684667,0.47789667,0.47905000,0.47960667,0.48154667,0.48253000,0.48337667,0.48536000,0.48733333,0.48695667,0.48880000,0.49039000,0.49182667,0.49297333,0.49482000,0.49731000,0.49774333,0.50017333,0.50172667,0.50313667,0.50432667,0.50672000,0.50803000,0.51000667,0.51217333,0.51253333,0.51435667,0.51652667,0.51701667,0.51820667,0.51858667,0.51982333,0.52095333,0.52091667,0.52285333,0.52342667,0.52503000,0.52697000,0.52746000,0.52801000,0.52953000,0.53020333,0.53263667,0.53360667,0.53461000,0.53689667,0.53743667,0.53876000,0.54162667,0.54123333,0.54413667,0.54487000,0.54571000,0.54794000,0.55024000,0.55192333,0.55310667,0.55499667,0.55672000,0.55786667,0.55967333,0.56171000,0.56291000,0.56518667,0.56646667,0.56817667,0.56930333,0.57090333,0.57284667,0.57369333,0.57651000,0.57815000,0.57938000,0.58144333,0.58281333,0.58488333,0.58602333,0.58831667,0.59051333,0.59125000,0.59395333,0.59560000,0.59744333,0.59900333,0.60230667,0.60486667,0.60542667,0.60785333,0.61055667,0.61307667,0.61350333,0.61569000,0.61844667,0.61963000,0.61978333,0.62228000,0.62466000,0.62646333,0.62702333,0.62925000,0.63300000,0.63467667,0.63653333,0.63891000,0.64431333,0.64598000,0.64829000,0.65142000,0.65730333,0.66000000,0.66397333,0.66774000,0.67346667,0.67877333,0.68568667,0.68841333,0.69308000,0.69693667,0.69956667,0.70128667,0.70387667,0.70578333,0.70768000,0.71058333,0.71169333,0.71159667,0.71438667,0.71451667,0.71597667,0.71600333,0.71715667,0.71672000,0.71718667,0.71810333,0.71599667,0.71704000,0.71728667,0.71731000,0.71673333,0.71621000,0.71586667,0.71514667,0.71624000,0.71633667,0.71477333,0.71527333,0.71436333,0.71309667,0.71438333,0.71169667,0.71153667,0.71188333,0.70995667,0.71200000,0.71050333,0.70978667,0.71001333
0.60120667,0.60085000,0.60149000,0.60218667,0.60326667,0.60419667,0.60536333,0.60535333,0.60721667,0.60735667,0.60899000,0.60928667,0.61116667,0.61246667,0.61420667,0.61587000,0.61686333,0.61963667,0.61939667,0.62101667,0.62245333,0.62387000,0.62538000,0.62703333,0.62839667,0.62901333,0.63068000,0.63229333,0.63314000,0.63488667,0.63543667,0.63675667,0.63893333,0.63859000,0.64120333,0.64195000,0.64333667,0.64515667,0.64550667,0.64774000,0.64873000,0.64988667,0.65199667,0.65356000,0.65417667,0.65661333,0.65682000,0.65831667,0.65999333,0.66103667,0.66300667,0.66457333,0.66546333,0.66701333,0.66881000,0.67043333,0.67231667,0.67359000,0.67492667,0.67638333,0.67828000,0.67938000,0.68095667,0.68258000,0.68462000,0.68594667,0.68774000,0.68925333,0.69002333,0.69074333,0.69353000,0.69571000,0.69623000,0.69821667,0.69988000,0.70147667,0.70263333,0.70440000,0.70691333,0.70787667,0.70901000,0.71264000,0.71323000,0.71477000,0.71703333,0.71943667,0.72039000,0.72223667,0.72439333,0.72714667,0.72758000,0.73001333,0.73240000,0.73428667,0.73452333,0.73646333,0.73917000,0.74074000,0.74101000,0.74343667,0.74699667,0.74918333,0.75030333,0.75289333,0.75662333,0.76000667,0.76123667,0.76431333,0.76952667,0.77278667,0.77709000,0.78102000,0.78696667,0.79285333,0.79725333,0.80121667,0.80512667,0.80881667,0.81234667,0.81387333,0.81596000,0.81841667,0.82069667,0.82247667,0.82295333,0.82371667,0.82625667,0.82545000,0.82778667,0.82735667,0.82814667,0.82886333,0.82785667,0.82798333,0.82845333,0.82688667,0.82631000,0.82830667,0.82753667,0.82618000,0.82615333,0.82619333,0.82403000,0.82324667,0.82323667,0.82097667,0.82149000,0.82107667,0.81995667,0.81850333,0.81950333,0.81615000,0.81724667,0.81513000,0.81589333,0.81303333,0.81426000
0.60805000,0.60844000,0.60936667,0.60934667,0.61032333,0.61115667,0.61164000,0.61242000,0.61318667,0.61408667,0.61475000,0.61578333,0.61655333,0.61767000,0.61815000,0.61935667,0.61998000,0.62079333,0.62210667,0.62232000,0.62298667,0.62428333,0.62471667,0.62551000,0.62692000,0.62769667,0.62848667,0.62899667,0.62975000,0.63014000,0.62973333,0.63070333,0.63069333,0.63176667,0.63209000,0.63238333,0.63250000,0.63351333,0.63380333,0.63430000,0.63552333,0.63572333,0.63679333,0.63706000,0.63739333,0.63891333,0.63946000,0.63980000,0.64101667,0.64251333,0.64326333,0.64329667,0.64440000,0.64541667,0.64748667,0.64743333,0.64910000,0.64957333,0.65195667,0.65221333,0.65342000,0.65375333,0.65475000,0.65621000,0.65684333,0.65717333,0.65826000,0.65944333,0.66012000,0.66170000,0.66298667,0.66330000,0.66494000,0.66603333,0.66765000,0.66807333,0.66936000,0.67054000,0.67130667,0.67334333,0.67424667,0.67558667,0.67692333,0.67903000,0.68028333,0.68151000,0.68293000,0.68570667,0.68717667,0.68884000,0.68965333,0.69116000,0.69311667,0.69426667,0.69533333,0.69651667,0.69828333,0.70019333,0.70065333,0.70409000,0.70541333,0.70762333,0.70921333,0.71209667,0.71457667,0.71639667,0.71892667,0.72213667,0.72658000,0.72857000,0.73374000,0.73770667,0.74383333,0.74829667,0.75334333,0.75730000,0.76161667,0.76436667,0.76745000,0.76958667,0.77111000,0.77360667,0.77558333,0.77667333,0.77758667,0.77949333,0.78006333,0.78040667,0.78052667,0.78065000,0.78061333,0.78122667,0.78151000,0.78057333,0.77980000,0.77946000,0.77857667,0.77917667,0.77948333,0.77763333,0.77670333,0.77680333,0.77673333,0.77554333,0.77363000,0.77362333,0.77231333,0.77204000,0.77018667,0.77051667,0.77008667,0.76900667,0.76936333,0.76838000,0.76745667,0.76811667,0.76692000
0.45885000,0.46012667,0.46118667,0.46182667,0.46341000,0.46418000,0.46571667,0.46684000,0.46881333,0.46915667,0.47068000,0.47245667,0.47387667,0.47498333,0.47676333,0.47943000,0.47948667,0.48211000,0.48326667,0.48434000,0.48509000,0.48695333,0.48827333,0.48907667,0.49173000,0.49229667,0.49359667,0.49518667,0.49619667,0.49744333,0.49790000,0.49889000,0.50030333,0.50074667,0.50221667,0.50249667,0.50359667,0.50605667,0.50646000,0.50727667,0.50875000,0.50905333,0.51106000,0.51179667,0.51305667,0.51483000,0.51553333,0.51650333,0.51903333,0.51925333,0.52079000,0.52234000,0.52236000,0.52457333,0.52653333,0.52794333,0.52949333,0.53088333,0.53212667,0.53403333,0.53560000,0.53695000,0.53867000,0.53991667,0.54147000,0.54271667,0.54371667,0.54538333,0.54719000,0.54767333,0.55086667,0.55235667,0.55213667,0.55525000,0.55552667,0.55811667,0.55924000,0.56121000,0.56317333,0.56359667,0.56654333,0.56787000,0.56971333,0.57063000,0.57398333,0.57610000,0.57706667,0.57874667,0.58129000,0.58342000,0.58334000,0.58579000,0.58803667,0.58960000,0.58980000,0.59219000,0.59489667,0.59575333,0.59648333,0.59915000,0.60271667,0.60470667,0.60595667,0.60786000,0.61330667,0.61550333,0.61810667,0.62123000,0.62728667,0.63008333,0.63330667,0.63788333,0.64462333,0.64989667,0.65656667,0.65850000,0.66380000,0.66737000,0.67093667,0.67182333,0.67460667,0.67669000,0.67948333,0.68119333,0.68205667,0.68265333,0.68451667,0.68381667,0.68637000,0.68603667,0.68626667,0.68627000,0.68722333,0.68679667,0.68611333,0.68645333,0.68541000,0.68580667,0.68659333,0.68463333,0.68468000,0.68377667,0.68339000,0.68308667,0.68044667,0.68071000,0.67959667,0.67991667,0.68008000,0.67863667,0.67748333,0.67676667,0.67583333,0.67569000,0.67524333,0.67445667,0.67445667
0.43980000,0.44213667,0.44337667,0.44560000,0.44789000,0.45016333,0.45179667,0.45333667,0.45549667,0.45843667,0.46050000,0.46220000,0.46427667,0.46656667,0.46887000,0.47094667,0.47335667,0.47498000,0.47738667,0.47994667,0.48134667,0.48344000,0.48553667,0.48691333,0.48967667,0.49051000,0.49257667,0.49454667,0.49578333,0.49800667,0.49978333,0.50113333,0.50275333,0.50406000,0.50619333,0.50718333,0.50915000,0.51131333,0.51237000,0.51427333,0.51553667,0.51771000,0.51948000,0.52003333,0.52229667,0.52377333,0.52595000,0.52790667,0.52990667,0.53054333,0.53258000,0.53438000,0.53629333,0.53782667,0.53928333,0.54239667,0.54315000,0.54547667,0.54787333,0.54958667,0.55202333,0.55297333,0.55533667,0.55775333,0.55869667,0.56064667,0.56273333,0.56434667,0.56624333,0.56748000,0.56971667,0.57089333,0.57310333,0.57473000,0.57809667,0.57890667,0.58059333,0.58342667,0.58529333,0.58623667,0.58865333,0.59104667,0.59302000,0.59533000,0.59740333,0.59987000,0.60189000,0.60439667,0.60689000,0.60828667,0.61004667,0.61240667,0.61527000,0.61689000,0.61859000,0.62029667,0.62185000,0.62421667,0.62581000,0.62808333,0.63158667,0.63430333,0.63649333,0.64036667,0.64350333,0.64689333,0.65054667,0.65494000,0.65815000,0.66342000,0.66738000,0.67358000,0.68026000,0.68683333,0.69158667,0.69634000,0.70084333,0.70457667,0.70801667,0.71066000,0.71365333,0.71597000,0.71854000,0.72108000,0.72272333,0.72423667,0.72519333,0.72668333,0.72736000,0.72718667,0.72843333,0.72877667,0.72983667,0.72921667,0.72944000,0.73023333,0.72962667,0.73065333,0.73065000,0.72915000,0.73009333,0.73045000,0.72812000,0.72991333,0.73114000,0.72924667,0.72808333,0.72792333,0.72770667,0.72805667,0.72859667,0.72838000,0.72655667,0.72796000,0.72735667,0.72801000,0.72992333
0.49403000,0.49643667,0.49753000,0.49918667,0.50069000,0.50322000,0.50383000,0.50603000,0.50774000,0.50998667,0.51187667,0.51352667,0.51521000,0.51703333,0.51986667,0.52134000,0.52351333,0.52470667,0.52727333,0.52920000,0.53104333,0.53286667,0.53422000,0.53588667,0.53832667,0.53852667,0.54109000,0.54196333,0.54305333,0.54508000,0.54633667,0.54788000,0.54887333,0.54910333,0.55156333,0.55242333,0.55328333,0.55575000,0.55645333,0.55832000,0.55914000,0.56046000,0.56236667,0.56275667,0.56416667,0.56589000,0.56711000,0.56951333,0.57083000,0.57163333,0.57332667,0.57482333,0.57641000,0.57831667,0.57887333,0.58110667,0.58259333,0.58541333,0.58671333,0.58813000,0.58992667,0.59116333,0.59298333,0.59504667,0.59633667,0.59808667,0.59924333,0.60131333,0.60297333,0.60417333,0.60630667,0.60749667,0.60880333,0.61027000,0.61315333,0.61424000,0.61634333,0.61836333,0.61948667,0.62111333,0.62298667,0.62539667,0.62693000,0.62903667,0.63155667,0.63363667,0.63528000,0.63752333,0.64096333,0.64209333,0.64382333,0.64606333,0.64785667,0.64987000,0.65098000,0.65306333,0.65500667,0.65716333,0.65798667,0.66115667,0.66425667,0.66646000,0.66948000,0.67272667,0.67626000,0.68013000,0.68296333,0.68740000,0.69148667,0.69707000,0.70149667,0.70782667,0.71482000,0.72133000,0.72760000,0.73198000,0.73701667,0.74095333,0.74513000,0.74581333,0.74957667,0.75198667,0.75361667,0.75652667,0.75825333,0.75836000,0.76020000,0.76093667,0.76043667,0.76232000,0.76219000,0.76255333,0.76231333,0.76227000,0.76110667,0.76258667,0.76055000,0.76087333,0.76054667,0.75853000,0.75955000,0.76005667,0.75634667,0.75681333,0.75945000,0.75693333,0.75587333,0.75476667,0.75463333,0.75397000,0.75311667,0.75334000,0.75198667,0.75233333,0.75201667,0.75166000,0.75382333
0.54741333,0.54939667,0.55102667,0.55218667,0.55331667,0.55557000,0.55647333,0.55876667,0.56085667,0.56219000,0.56366000,0.56502333,0.56659667,0.56845000,0.57045667,0.57251667,0.57355000,0.57522667,0.57664667,0.57880333,0.57915667,0.58092667,0.58199000,0.58320000,0.58494333,0.58608333,0.58870333,0.58927667,0.59040000,0.59093000,0.59152000,0.59379333,0.59506000,0.59561000,0.59776667,0.59738000,0.59925333,0.60072667,0.60153000,0.60271667,0.60401667,0.60551000,0.60640000,0.60763000,0.60835000,0.60990000,0.61102000,0.61233333,0.61400667,0.61517000,0.61657667,0.61734333,0.61876333,0.61997000,0.62243667,0.62325333,0.62451000,0.62665000,0.62810333,0.62936333,0.63059667,0.63204333,0.63289333,0.63495000,0.63588667,0.63711667,0.63897000,0.63982667,0.64096667,0.64256333,0.64447333,0.64546333,0.64712667,0.64856667,0.65034333,0.65136000,0.65303000,0.65436333,0.65555000,0.65732667,0.65883667,0.66061333,0.66186667,0.66386667,0.66634333,0.66732000,0.66935667,0.67178000,0.67347667,0.67584000,0.67647667,0.67826667,0.68002667,0.68229000,0.68331667,0.68405667,0.68655667,0.68812000,0.68923000,0.69222333,0.69368000,0.69598000,0.69876000,0.70222333,0.70490667,0.70798333,0.71124333,0.71507333,0.71975667,0.72348333,0.72739000,0.73298333,0.73959667,0.74464333,0.75014667,0.75506000,0.75975667,0.76287667,0.76596333,0.76948667,0.77029000,0.77390667,0.77553000,0.77750333,0.77899000,0.78059000,0.78092333,0.78188667,0.78270000,0.78301000,0.78336333,0.78398333,0.78393667,0.78272333,0.78339000,0.78407000,0.78222667,0.78172667,0.78288333,0.78218667,0.78089667,0.78217333,0.78189667,0.78086333,0.77973667,0.77939333,0.77840667,0.77874333,0.77606000,0.77677333,0.77637333,0.77588667,0.77652333,0.77501667,0.77621000,0.77578000,0.77522000
0.53519000,0.53758333,0.53887333,0.54106000,0.54250333,0.54450333,0.54641667,0.54809667,0.54926333,0.55166333,0.55407667,0.55508667,0.55687667,0.55861333,0.56151000,0.56332667,0.56465000,0.56720333,0.56806333,0.57018667,0.57154000,0.57374667,0.57567667,0.57695667,0.57899667,0.58084667,0.58245333,0.58384000,0.58541333,0.58658667,0.58860667,0.58958667,0.59135000,0.59202667,0.59330000,0.59419667,0.59592667,0.59752333,0.59853333,0.59988000,0.60094000,0.60253667,0.60360000,0.60576000,0.60692667,0.60868667,0.61020333,0.61176333,0.61273667,0.61420000,0.61675333,0.61775000,0.61944667,0.62119000,0.62259000,0.62390667,0.62594333,0.62811000,0.62969667,0.63145000,0.63288667,0.63430333,0.63567333,0.63810333,0.63919667,0.64107000,0.64200667,0.64332333,0.64548333,0.64693333,0.64877667,0.64977000,0.65218333,0.65379333,0.65565000,0.65768333,0.65955333,0.66087667,0.66345667,0.66452667,0.66668667,0.66878000,0.67062667,0.67211333,0.67453667,0.67679667,0.67865667,0.68038333,0.68382667,0.68522000,0.68726333,0.68960333,0.69182000,0.69153000,0.69375333,0.69558667,0.69725667,0.69964000,0.70155333,0.70291000,0.70598333,0.70846000,0.71064000,0.71401000,0.71695333,0.72040667,0.72396667,0.72659000,0.73097667,0.73584333,0.74063333,0.74507333,0.75127667,0.75703333,0.76269667,0.76746667,0.77167667,0.77593667,0.77960000,0.78145667,0.78489000,0.78696000,0.78850000,0.79139333,0.79211333,0.79472000,0.79423667,0.79682667,0.79781333,0.79799333,0.79883000,0.79861333,0.79900333,0.79912333,0.79806667,0.79995000,0.80037333,0.79903667,0.79913000,0.79960000,0.80049333,0.79857667,0.79831333,0.79834000,0.79763667,0.79641333,0.79771333,0.79487333,0.79619000,0.79460667,0.79535000,0.79330333,0.79500667,0.79317333,0.79263000,0.79269333,0.79302000
0.46454667,0.46519000,0.46692667,0.46930000,0.47087333,0.47226000,0.47482000,0.47606667,0.47815000,0.47976000,0.48214667,0.48352000,0.48566000,0.48723667,0.49015000,0.49222000,0.49445667,0.49688667,0.49823000,0.50121333,0.50244333,0.50442333,0.50673333,0.50794667,0.51113000,0.51185000,0.51360333,0.51569333,0.51759667,0.51930667,0.52030667,0.52280667,0.52462667,0.52580667,0.52766333,0.52864000,0.53079667,0.53244000,0.53389000,0.53591333,0.53780333,0.53949000,0.54159000,0.54354667,0.54558333,0.54759667,0.54931333,0.55060333,0.55263333,0.55408000,0.55620000,0.55742667,0.55941000,0.56188000,0.56331333,0.56588333,0.56785000,0.56986333,0.57178333,0.57378667,0.57532333,0.57790333,0.57927667,0.58207000,0.58341667,0.58527667,0.58752667,0.58922333,0.59167333,0.59357333,0.59511000,0.59725333,0.59869667,0.60140333,0.60314667,0.60491667,0.60714667,0.60949667,0.61167000,0.61309333,0.61642000,0.61838333,0.62078667,0.62235000,0.62493333,0.62715000,0.62984667,0.63236333,0.63420000,0.63662000,0.63883667,0.64073333,0.64352333,0.64539000,0.64708667,0.64873333,0.65202667,0.65358333,0.65552000,0.65798000,0.66147333,0.66447333,0.66735000,0.67003667,0.67332000,0.67650333,0.67951333,0.68344667,0.68787333,0.69241000,0.69668333,0.70139333,0.70802333,0.71448667,0.71946667,0.72401000,0.72839333,0.73225667,0.73642667,0.73911000,0.74037333,0.74347333,0.74675667,0.74782333,0.74908000,0.75115333,0.75262667,0.75407667,0.75467000,0.75434333,0.75499667,0.75649000,0.75691667,0.75713333,0.75727667,0.75779000,0.75746667,0.75724000,0.75755333,0.75718667,0.75768667,0.75671000,0.75574000,0.75527000,0.75553333,0.75481667,0.75571667,0.75446667,0.75384000,0.75447000,0.75388667,0.75334000,0.75270333,0.75424667,0.75518000,0.75254000,0.75298667
