1000,1005,1010,1015,1020,1025,1030,1035,1040,1045,1050,1055,1060,1065,1070,1075,1080,1085,1090,1095,1100,1105,1110,1115,1120,1125,1130,1135,1140,1145,1150,1155,1160,1165,1170,1175,1180,1185,1190,1195,1200,1205,1210,1215,1220,1225,1230,1235,1240,1245,1250,1255,1260,1265,1270,1275,1280,1285,1290,1295,1300,1305,1310,1315,1320,1325,1330,1335,1340,1345,1350,1355,1360,1365,1370,1375,1380,1385,1390,1395,1400,1405,1410,1415,1420,1425,1430,1435,1440,1445,1450,1455,1460,1465,1470,1475,1480,1485,1490,1495,1500,1505,1510,1515,1520,1525,1530,1535,1540,1545,1550,1555,1560,1565,1570,1575,1580,1585,1590,1595,1600,1605,1610,1615,1620,1625,1630,1635,1640,1645,1650,1655,1660,1665,1670,1675,1680,1685,1690,1695,1700,1705,1710,1715,1720,1725,1730,1735,1740,1745,1750,1755,1760,1765,1770,1775,1780,1785,1790,1795,1800,1805,1810,1815,1820,1825,1830,1835,1840,1845,1850,1855,1860,1865,1870,1875,1880,1885,1890,1895,1900,1905,1910,1915,1920,1925,1930,1935,1940,1945,1950,1955,1960,1965,1970,1975,1980,1985,1990,1995,2000,2005,2010,2015,2020,2025,2030,2035,2040,2045,2050,2055,2060,2065,2070,2075,2080,2085,2090,2095,2100,2105,2110,2115,2120,2125,2130,2135,2140,2145,2150,2155,2160,2165,2170,2175,2180,2185,2190,2195,2200,2205,2210,2215,2220,2225,2230,2235,2240,2245,2250,2255,2260,2265,2270,2275,2280,2285,2290,2295,2300,2305,2310,2315,2320,2325,2330,2335,2340,2345,2350,2355,2360,2365,2370,2375,2380,2385,2390,2395,2400,2405,2410,2415,2420,2425,2430,2435,2440,2445,2450,2455,2460,2465,2470,2475,2480,2485,2490,2495,2500
0.512312333,0.513135667,0.514137333,0.514838,0.515883,0.516849667,0.517392667,0.518641667,0.518803667,0.519527667,0.519766,0.520558,0.521207667,0.521159333,0.521389667,0.520895,0.520469,0.520235667,0.519721333,0.519165667,0.518777333,0.518216667,0.517329333,0.516405333,0.514968,0.513447667,0.510673,0.505923667,0.500170333,0.493511,0.488200667,0.484775333,0.482915,0.481348,0.480503333,0.480134667,0.479466,0.479061667,0.478323333,0.478773333,0.479076333,0.479060333,0.479815,0.480409333,0.481311333,0.482070667,0.482859,0.483355,0.484052667,0.484713667,0.485272333,0.485548333,0.485698333,0.485566,0.485117333,0.484434333,0.483274667,0.481933333,0.480312,0.477955667,0.475051333,0.471821667,0.468415333,0.463743667,0.458103,0.451819333,0.445152333,0.438113,0.430945333,0.424519667,0.417920333,0.411837667,0.405085333,0.397072667,0.385637,0.369232,0.346467333,0.316213333,0.281824,0.247863667,0.217885,0.193915,0.176809,0.164624333,0.156127667,0.15019,0.146029667,0.143456333,0.142018667,0.141591667,0.141385333,0.142035333,0.143789333,0.146911333,0.151638667,0.157270333,0.163864667,0.170671,0.17845,0.186211667,0.194249333,0.202175,0.21044,0.218733,0.226433667,0.234453667,0.242486333,0.249998667,0.257379667,0.264436667,0.271596,0.278188667,0.284042333,0.289703333,0.294851333,0.299667667,0.304724333,0.309093667,0.313411333,0.317988667,0.321774667,0.32549,0.328719667,0.332061333,0.334510667,0.337391,0.339839,0.342356667,0.344472667,0.346060667,0.347773667,0.348693333,0.349309333,0.349905667,0.350037,0.349967667,0.349433333,0.347721667,0.346714667,0.345480333,0.343963333,0.341960667,0.340128333,0.338116667,0.335685333,0.332799667,0.329580333,0.326537667,0.322739,0.319040667,0.314404667,0.310268667,0.305927333,0.301725667,0.298077333,0.295551667,0.293371667,0.292306667,0.291153,0.291069,0.291452667,0.291869667,0.291597667,0.291656333,0.291548,0.290956,0.288902,0.28564,0.281809,0.274822333,0.265938,0.252379,0.235471667,0.216040333,0.190289667,0.160383667,0.131423667,0.104341667,0.081201,0.065058,0.053989667,0.047912333,0.044086333,0.042138,0.041540333,0.040577,0.041299333,0.041041333,0.041941667,0.043097,0.044393667,0.045848667,0.047693,0.05004,0.052087333,0.054685333,0.057587333,0.060319333,0.064090667,0.067294,0.071437,0.075371,0.078930667,0.083582667,0.087722333,0.092226333,0.096275667,0.100713667,0.104444667,0.10902,0.113253,0.117647,0.122361333,0.12729,0.132294,0.137032,0.141855333,0.146702333,0.151523,0.156258333,0.161260333,0.165743,0.170929,0.175408333,0.180141333,0.183845667,0.188242,0.191923667,0.194284667,0.197653,0.199855667,0.201957667,0.203711667,0.205848667,0.206762667,0.2084,0.209941667,0.211279,0.212606333,0.213869,0.214752667,0.215330333,0.216199667,0.216274667,0.216382,0.215497667,0.214607333,0.212961333,0.210666,0.20791,0.204343333,0.200605333,0.197066667,0.192956333,0.188811667,0.185174,0.181318,0.177077667,0.173692,0.170315333,0.166790667,0.162189667,0.15859,0.155234667,0.151414,0.148722333,0.144824333,0.140743667,0.138083333,0.134093,0.129454,0.125865333,0.123297,0.120127667,0.115884,0.111321,0.108555333,0.105359333,0.101413333,0.097372333,0.093877,0.090132667,0.087245333,0.083476333,0.080397333,0.078529333,0.07576,0.071128667,0.067567,0.06486,0.063938,0.061199667,0.057178,0.053499667,0.053133333,0.053203333,0.051258,0.047557,0.047424,0.049365333,0.049938333
0.505665,0.507077667,0.508713667,0.510072,0.511179667,0.512065,0.512852,0.513679667,0.514264667,0.515098333,0.515075333,0.514910333,0.515009,0.515495667,0.515813,0.515155667,0.514732,0.514379667,0.514289333,0.51407,0.513173333,0.512061333,0.511215333,0.510545,0.509566333,0.507868,0.504842333,0.500239333,0.494062333,0.487510667,0.482358,0.478927667,0.477228,0.475995667,0.47553,0.475198667,0.474523,0.474205,0.473744333,0.473783667,0.474139333,0.474638667,0.475284667,0.47562,0.476340333,0.477249667,0.477767333,0.478056667,0.478401,0.479050333,0.479364333,0.47985,0.479908667,0.479963333,0.479546333,0.478744,0.477452,0.475974667,0.474028,0.471759667,0.469031,0.465674667,0.462226,0.457541,0.45248,0.446463333,0.439643667,0.432779333,0.426022333,0.41946,0.413245,0.407462333,0.400652333,0.392129667,0.380542667,0.364507333,0.342167,0.312184333,0.277533667,0.243619,0.213597333,0.189677333,0.172625333,0.160909667,0.152961667,0.147439667,0.143795667,0.141695,0.140601,0.140202667,0.140542,0.141698667,0.143692333,0.147119667,0.15234,0.158302333,0.165523333,0.172726333,0.180621333,0.188743333,0.197066667,0.205422,0.213958667,0.222439,0.230494333,0.238637667,0.246497,0.254123333,0.261343,0.268649333,0.275561667,0.281891667,0.287690667,0.293421333,0.298765333,0.303659,0.308492667,0.312792667,0.317047,0.320960333,0.324655667,0.328516667,0.331465,0.334587667,0.33718,0.339590333,0.341644667,0.343946667,0.345713667,0.347831333,0.349050667,0.350109667,0.350976,0.351109667,0.351436333,0.351041333,0.350644667,0.348917667,0.347922667,0.346413667,0.345011333,0.343404333,0.341577667,0.339436,0.33701,0.333935,0.330791,0.327509,0.324179667,0.320187,0.315587667,0.311316667,0.307048667,0.303026333,0.299220667,0.2964,0.294179333,0.292999667,0.291827,0.2917,0.291320667,0.291411,0.290899333,0.291081,0.289754333,0.288698,0.286657,0.283444333,0.279021,0.272183,0.262736333,0.250004,0.234580667,0.217114333,0.194435,0.163919667,0.133033,0.103397667,0.079408,0.061338,0.050609,0.043088333,0.041107333,0.039037,0.038032667,0.038079667,0.037517333,0.038225333,0.039058333,0.040440667,0.042264,0.043403,0.045942667,0.048404,0.050786667,0.053904667,0.057254667,0.060795,0.064631333,0.069069333,0.073387,0.077997667,0.083085,0.087936667,0.092695,0.098423333,0.103347667,0.108788,0.113758,0.118485667,0.123728333,0.128941,0.134259,0.140213,0.146242333,0.151893,0.158088333,0.162986,0.169674333,0.174897667,0.180349,0.186237667,0.191854,0.197242667,0.202812667,0.206897,0.211497,0.215926667,0.218847333,0.221489,0.224462667,0.227019333,0.228345667,0.229994667,0.231369667,0.232676,0.234223,0.235927333,0.236367,0.237654,0.239207,0.239678333,0.2397,0.240490667,0.239867,0.239315667,0.238130333,0.236082333,0.233724333,0.230707667,0.227502333,0.223308667,0.218996,0.214744333,0.210519,0.206422667,0.201838,0.197719333,0.193914667,0.190188,0.185534667,0.180988,0.176615667,0.172700667,0.170062333,0.164724,0.159705,0.156092,0.152187,0.147487667,0.142911333,0.139333667,0.134469667,0.129958333,0.126536,0.122222667,0.116859,0.113000667,0.110465,0.106488,0.102208667,0.097811667,0.093394667,0.089366333,0.087232333,0.084331333,0.080029333,0.076816667,0.072837,0.069065,0.064834,0.062156,0.060279,0.058844667,0.057638667,0.054236667,0.051263333,0.047642667,0.047342333,0.047028,0.047578667
0.594759333,0.596343,0.597981,0.599748,0.600519333,0.601344667,0.601790667,0.602684333,0.603336333,0.604023333,0.604286333,0.604123,0.604513,0.604643667,0.605038,0.604772,0.604441,0.604021667,0.603337667,0.603037333,0.602209,0.601579,0.601170333,0.600337667,0.599310333,0.597703333,0.595578333,0.591352,0.585660333,0.579786,0.575055,0.572010667,0.569551,0.568223333,0.567620333,0.567422,0.566572,0.565931,0.565519667,0.565280333,0.565408667,0.565725,0.566333,0.567317,0.567891667,0.568787,0.56924,0.569892333,0.570306333,0.570897,0.571172333,0.571357667,0.571494333,0.57081,0.570721333,0.570116667,0.569067667,0.568041333,0.566409,0.564520667,0.561721,0.558729333,0.555563333,0.551262333,0.546189667,0.540458333,0.534382667,0.527767667,0.521268,0.514732333,0.508909333,0.502862,0.495959,0.487684,0.476333667,0.460520333,0.437493333,0.406844,0.370110333,0.332564,0.297929333,0.268789333,0.247732,0.232442667,0.222076,0.214664,0.209652667,0.20655,0.20518,0.204738,0.20505,0.206392333,0.208931,0.213372,0.219505667,0.226980333,0.235593333,0.244479,0.253741333,0.263204,0.273050667,0.282680333,0.292417333,0.301648333,0.310662333,0.319224333,0.327962333,0.336071,0.343859667,0.351187667,0.358666,0.365734333,0.371499667,0.377169,0.382362333,0.387365,0.392170667,0.397066667,0.401295333,0.405662667,0.409689,0.413423667,0.416753333,0.420494,0.423511333,0.426262333,0.428796333,0.431088667,0.433151333,0.434893,0.436910667,0.438148,0.438593,0.438962333,0.439098,0.438386667,0.437051667,0.435272667,0.433664667,0.431986667,0.429793,0.427971333,0.426011,0.424062667,0.421745333,0.418873667,0.415453,0.412130333,0.408645333,0.404297667,0.399956,0.395577333,0.391212333,0.386784667,0.383299,0.380454,0.378480333,0.376933,0.376381333,0.375831333,0.376072,0.376378,0.376656,0.376962333,0.376489333,0.375598,0.374038333,0.371270333,0.366742333,0.359601,0.350062333,0.336434667,0.318273,0.296834667,0.266320667,0.227765667,0.187265667,0.149373333,0.114438667,0.088464,0.070001333,0.059621667,0.053792667,0.050667333,0.048631333,0.048039,0.048125333,0.049051333,0.050190333,0.052441,0.054723,0.057913667,0.06156,0.065163,0.069612,0.07416,0.079435667,0.084934667,0.090804667,0.096814,0.10318,0.109273,0.116151,0.122618333,0.129421667,0.135457333,0.142008333,0.148041667,0.153813667,0.15935,0.165104333,0.170875333,0.176745333,0.182557333,0.188809,0.194849,0.200922333,0.206769333,0.212477667,0.218071667,0.223838333,0.229498333,0.235015,0.240459,0.245445,0.25085,0.255426,0.259397,0.262818333,0.265779,0.268388,0.271251333,0.272918,0.274412333,0.276197667,0.277161333,0.279089,0.281566,0.283539333,0.285146,0.286441,0.287769667,0.288076333,0.288815333,0.288807,0.288211667,0.287202333,0.284615333,0.282353667,0.278390333,0.274394333,0.269509667,0.263282,0.257518667,0.252172333,0.246902,0.241479333,0.236239333,0.23249,0.228794333,0.224247,0.219563333,0.215105667,0.210747667,0.207218,0.203517667,0.199685,0.195596,0.190909667,0.186224667,0.181696333,0.177553667,0.173063333,0.168247333,0.163745667,0.158945,0.154168667,0.149904333,0.145170667,0.140337667,0.135251667,0.130242,0.125978667,0.121225333,0.115676333,0.110401333,0.105966,0.102050333,0.097716,0.092852333,0.088348667,0.084396,0.081228,0.07789,0.074848333,0.071304333,0.068926667,0.066537667,0.064075,0.061493,0.060874
0.513844333,0.515451,0.516861333,0.518689333,0.520131667,0.520583,0.520959667,0.522503333,0.523220333,0.524293,0.524014333,0.524405,0.524973,0.524682333,0.524903333,0.524823,0.524601667,0.523759,0.52324,0.522817,0.522240333,0.521362,0.520823667,0.519572667,0.518237667,0.516555667,0.513802,0.508998667,0.502477333,0.495844,0.490398333,0.486010333,0.484002667,0.482616667,0.481984,0.481783333,0.480912667,0.480128667,0.479331667,0.479459333,0.479718333,0.480083,0.480631,0.481223,0.482474667,0.483139,0.483867667,0.484283667,0.48471,0.484936667,0.485388,0.485786,0.486002667,0.485776333,0.48545,0.485051667,0.483782333,0.482152333,0.480282333,0.478162667,0.475227,0.471657,0.46801,0.463002333,0.457382667,0.451256667,0.444666667,0.437451333,0.430151667,0.423686333,0.417466,0.411093,0.404343333,0.396009333,0.384421,0.368705333,0.346913667,0.316964,0.282837667,0.249494333,0.220038,0.196373,0.179632,0.167447667,0.159187,0.15316,0.149153333,0.146593,0.145018,0.144263667,0.144205667,0.144843667,0.146463667,0.149304,0.154054333,0.159480667,0.165789333,0.172760333,0.180088,0.187631,0.195537667,0.203363333,0.211264,0.219210667,0.227173333,0.235026,0.242516667,0.249767333,0.256708333,0.263764,0.270879,0.277491667,0.2831,0.288514333,0.293630667,0.29861,0.303341,0.307851667,0.311882333,0.316258333,0.320096667,0.323716667,0.326687333,0.330222,0.332912333,0.335198,0.337625333,0.339858,0.341867333,0.343756667,0.345034667,0.346060667,0.346692333,0.347085667,0.347441,0.347015333,0.346281667,0.344910667,0.343922,0.342876333,0.341458667,0.339399333,0.337923333,0.335527667,0.333222333,0.330689667,0.327181667,0.324356,0.321081667,0.316884,0.31263,0.308177667,0.304093,0.300231,0.296642333,0.293508333,0.291387667,0.290500333,0.288942333,0.288973,0.289306333,0.289689,0.289769333,0.289586,0.288927,0.288008,0.286034333,0.283810333,0.279131333,0.272808667,0.264221667,0.251054333,0.235772,0.218584667,0.196102333,0.167903333,0.136939,0.109576333,0.087434,0.069828,0.058385667,0.053116667,0.050239667,0.047707333,0.04663,0.046101667,0.046107,0.046621333,0.047140333,0.048258667,0.049842,0.051663667,0.05276,0.055620333,0.057859667,0.060573333,0.064166667,0.066828667,0.070365667,0.073841,0.077925,0.081768667,0.086239667,0.090488,0.094891333,0.099653333,0.103754,0.108077,0.112597667,0.117478,0.121919667,0.126203667,0.130681333,0.136151667,0.140556667,0.146194667,0.151330333,0.156031667,0.161260667,0.166509,0.171558667,0.176106,0.180872667,0.18557,0.190534,0.195169,0.199655333,0.202764667,0.206562,0.209331333,0.211844,0.213555,0.215282667,0.216384,0.218083667,0.219924667,0.221408333,0.222459667,0.223727667,0.225182333,0.225961333,0.226490667,0.226722,0.227355,0.226788,0.226324667,0.225524,0.223139667,0.220868,0.218680333,0.214805333,0.211141333,0.206884,0.202888,0.199022333,0.194557,0.190770333,0.187293333,0.183808667,0.180384333,0.176475333,0.173019,0.168680667,0.164704,0.161309333,0.157196333,0.154274667,0.151123667,0.145958667,0.1412,0.137789,0.135133333,0.130969667,0.126776,0.123117,0.119870333,0.115725,0.112245333,0.108808667,0.104844333,0.100960333,0.098040667,0.094535,0.090439333,0.087782333,0.082563667,0.079609,0.077722333,0.076257333,0.072887,0.070094667,0.067191333,0.063967,0.059521333,0.056179667,0.055199333,0.055323,0.055024333,0.056051333,0.055657333,0.051913667
0.522557667,0.523583667,0.524976333,0.525842333,0.526048667,0.526730333,0.528174667,0.528724,0.529248333,0.530006667,0.530279,0.530604,0.530795,0.531394,0.531343,0.531064,0.530905667,0.530414,0.529654,0.529344,0.528610667,0.527969667,0.527173667,0.526339,0.525124667,0.523855667,0.521482,0.517246333,0.512338667,0.506589,0.501692,0.498480333,0.496868333,0.495319667,0.494643,0.494443,0.493523667,0.493092667,0.492685667,0.492397,0.492347,0.492810333,0.493429667,0.493884,0.494573333,0.494899,0.495673667,0.495946333,0.496434333,0.497286333,0.497288333,0.497725667,0.497878667,0.497638667,0.4971,0.496614333,0.495626667,0.494382,0.492511667,0.490514333,0.488097667,0.485028667,0.481847667,0.47767,0.472862333,0.467227333,0.461369,0.455115333,0.448852,0.442559667,0.436580333,0.431311,0.425181667,0.417757667,0.407188,0.392414333,0.371333667,0.342577333,0.309492,0.275857667,0.245375333,0.220379333,0.202342,0.189395333,0.180094333,0.173511,0.168911667,0.165902,0.163703,0.162785667,0.162586667,0.163079667,0.164602333,0.167753333,0.1725,0.178338667,0.185242333,0.192526667,0.20026,0.208326,0.216734667,0.224989667,0.233087667,0.241543,0.249508,0.257591667,0.265421,0.273116,0.280626333,0.287535,0.294518333,0.301143,0.306995333,0.312466667,0.317492,0.322346333,0.327208333,0.331446667,0.335551333,0.339285,0.343158667,0.346815667,0.349716333,0.352817667,0.355154333,0.357548333,0.360087,0.362398333,0.364287,0.365779667,0.366867,0.367931,0.368674,0.369316,0.369784667,0.369520667,0.368736667,0.36754,0.366444667,0.365242667,0.364005667,0.361934,0.360263,0.358295,0.356271,0.353838,0.350875,0.347933,0.344622,0.340842,0.336538,0.332423333,0.328031333,0.324393667,0.320417667,0.318037,0.316034,0.314888333,0.314181,0.313961,0.314119667,0.314299,0.314458,0.314470333,0.313820333,0.312764,0.311713,0.308908667,0.304432667,0.298272,0.289399,0.277192,0.261540333,0.242826,0.218556333,0.186601,0.154272,0.122718,0.096357,0.076461667,0.063769,0.057019,0.052068,0.050111,0.047905333,0.047390667,0.047198667,0.047747667,0.04876,0.049817,0.051257,0.053437333,0.055909333,0.057793,0.060865,0.063983333,0.067430667,0.070772333,0.074658667,0.078982333,0.083419,0.088067333,0.092369,0.097094667,0.102102,0.107077,0.112260333,0.117152,0.121948333,0.126793333,0.132227667,0.136895333,0.142336667,0.147269,0.153238667,0.158455667,0.16393,0.169237667,0.174799667,0.180482333,0.185137,0.190885,0.196321333,0.201277667,0.206195,0.210880333,0.216055667,0.219558667,0.222882667,0.225868333,0.228265667,0.231045,0.233002333,0.233745,0.235662667,0.236955667,0.238550333,0.239770333,0.240924,0.242134,0.243524,0.243487,0.244938667,0.244534667,0.244323333,0.244111667,0.242940333,0.241117333,0.239436,0.236958,0.233852,0.230007333,0.225818333,0.221328667,0.217237667,0.213154,0.209419667,0.205819,0.201657333,0.197774,0.193743333,0.189149333,0.185104333,0.181665,0.177796333,0.174103667,0.170678667,0.166358667,0.161706,0.157666,0.153248333,0.149057333,0.144753,0.141043,0.136939667,0.133442333,0.12909,0.125688333,0.120931667,0.116707667,0.114209333,0.110449667,0.105786,0.101456667,0.098391333,0.0952,0.091490667,0.087809,0.084337333,0.081667333,0.078972,0.077531667,0.074122,0.070691,0.066725,0.06569,0.06378,0.061757333,0.059624333,0.057910667,0.056992333
0.525175,0.526613667,0.527957667,0.529327333,0.531161,0.531628333,0.532542333,0.534385667,0.534365333,0.535277667,0.535271667,0.535518333,0.535631,0.535861,0.536097667,0.536030333,0.535905,0.534792333,0.534258,0.533677333,0.533367667,0.532650333,0.531681667,0.530393333,0.528981667,0.527151333,0.524254667,0.519125333,0.512277,0.505347,0.499538333,0.49491,0.492462,0.491277333,0.490768667,0.4901,0.489046333,0.48843,0.487339333,0.487137333,0.487806333,0.488183,0.489205,0.490158,0.491086,0.491627333,0.492379333,0.492996,0.493394333,0.494326333,0.494683333,0.494925333,0.495087667,0.495069667,0.494496333,0.493829,0.49269,0.491218667,0.489093,0.486517333,0.483375667,0.479847333,0.476372,0.471062667,0.465329333,0.458799667,0.451596333,0.443906333,0.435933333,0.428699667,0.421752667,0.414999667,0.408001333,0.399148,0.386532667,0.369643333,0.346210667,0.314436333,0.27792,0.242510333,0.211380667,0.186261333,0.168762,0.156187,0.147685333,0.141292333,0.137184333,0.134746667,0.133248333,0.132664,0.132602333,0.133151,0.135069667,0.138075,0.142691,0.148458333,0.154860333,0.162036,0.169612333,0.177578667,0.185857,0.193986333,0.202243333,0.210583333,0.218283333,0.226517667,0.234648667,0.242313333,0.249488,0.256713,0.26407,0.270686,0.276747667,0.282378667,0.287511333,0.292658667,0.297971667,0.302522,0.307098667,0.311610333,0.315791,0.319371333,0.322759667,0.326692667,0.329704667,0.332445333,0.334799333,0.337592333,0.340009,0.342060667,0.343761,0.345095333,0.34526,0.345995333,0.346312667,0.345807667,0.3448,0.343381,0.341726,0.339654333,0.337903333,0.336003,0.334296667,0.331859333,0.329796333,0.326947667,0.323072,0.320262333,0.316514667,0.312418667,0.307896,0.303545333,0.299034333,0.295265333,0.291294667,0.288404333,0.286297333,0.285447667,0.284297333,0.28459,0.284603667,0.285092667,0.284649333,0.28496,0.284267333,0.283383667,0.282071333,0.279094,0.274122667,0.267522667,0.258326333,0.245857333,0.229829,0.212038,0.189251667,0.160088,0.128970333,0.101076333,0.078946667,0.062037333,0.051933333,0.047264,0.044184333,0.041519667,0.041210333,0.040464,0.040630667,0.041031667,0.041495333,0.042540333,0.043958,0.045138,0.046938667,0.048763333,0.050790333,0.053302,0.05615,0.059043333,0.061878333,0.065828667,0.068883,0.073299,0.07748,0.081577,0.085745333,0.089919667,0.094281,0.098367333,0.102691667,0.107149667,0.111476333,0.115982,0.120380667,0.125379,0.129891,0.135086333,0.140396333,0.145026,0.149974333,0.154451667,0.160308,0.164405,0.169708667,0.174330333,0.179023333,0.183857333,0.188160667,0.191463,0.19476,0.197756333,0.200652667,0.202637,0.204191333,0.206697667,0.207400667,0.209438333,0.210606,0.212492333,0.214772333,0.215890333,0.217462,0.218770667,0.219098667,0.219341667,0.219212,0.219202,0.218109333,0.216653333,0.213572667,0.211067,0.207207,0.202443,0.198023333,0.193106333,0.188340333,0.183906333,0.179232667,0.175155667,0.172284667,0.168835333,0.164625667,0.160639333,0.156305667,0.152853667,0.149461333,0.145792667,0.142418,0.139194333,0.134709333,0.129999,0.126535,0.123352,0.119892,0.116026333,0.112616333,0.109814,0.106279667,0.101528667,0.098112,0.094879333,0.091954,0.08891,0.084756667,0.080332,0.077404333,0.074843,0.071945333,0.069955,0.067237667,0.063987667,0.060785,0.058261,0.056261667,0.053733667,0.051932667,0.049195667,0.047547,0.046447333,0.047203333,0.047255333,0.046218
0.502822667,0.502999667,0.502910667,0.503390333,0.503597333,0.504883333,0.505568333,0.506407667,0.506705667,0.507350667,0.507676,0.507676333,0.507974667,0.508143667,0.508856333,0.508434667,0.507841667,0.507518667,0.507239333,0.506641333,0.506174333,0.505665333,0.504709,0.504025,0.503268333,0.501336333,0.498480667,0.494415,0.488632,0.482680333,0.477782333,0.474426,0.473184333,0.471897667,0.470989,0.471062333,0.470479333,0.470693,0.470103667,0.470006667,0.470064667,0.470726667,0.471611333,0.472211,0.472625333,0.473318667,0.474127,0.474336667,0.474888333,0.475735333,0.476132667,0.476367333,0.476498,0.476481667,0.475703333,0.475174667,0.474169,0.472643,0.471085667,0.469032333,0.466239,0.463103333,0.459767667,0.455449,0.450163,0.444137333,0.437824333,0.431305667,0.424843667,0.418527333,0.412279667,0.406309,0.400200667,0.392267,0.38109,0.365017667,0.343050667,0.313766,0.28055,0.247436667,0.217916667,0.194218667,0.177377333,0.165636,0.157878333,0.152247333,0.148698667,0.146687,0.145420333,0.144963333,0.145312333,0.146241667,0.148387,0.151951667,0.156642333,0.162662,0.169922,0.177144,0.184711333,0.193003,0.201277333,0.209593333,0.2178,0.226014,0.234154,0.242197333,0.249949,0.257616,0.265076333,0.272222333,0.279265667,0.285771333,0.291730333,0.297313,0.301961667,0.306756333,0.311711333,0.316149667,0.320430333,0.324353333,0.327685,0.331118333,0.334304333,0.337396667,0.339576,0.342098333,0.344278,0.346709333,0.348574333,0.349644333,0.351115,0.352267667,0.353146,0.353530333,0.353841333,0.35325,0.352451333,0.351365333,0.350289667,0.349000667,0.347538667,0.345584333,0.344008333,0.341876333,0.339445333,0.336953,0.333671667,0.330608667,0.327186333,0.32319,0.318534667,0.314142333,0.309845667,0.306185,0.302298333,0.299820333,0.297383667,0.295912667,0.294662667,0.294723333,0.29432,0.294551,0.294550667,0.294660333,0.294114,0.293311,0.290741,0.288074,0.283679667,0.276713667,0.267103667,0.253635,0.236279333,0.216059667,0.189972,0.159623,0.129422667,0.101427667,0.079143,0.062177,0.051890333,0.043664333,0.041947333,0.039869333,0.038817667,0.038352333,0.038486,0.038556667,0.039146333,0.040637667,0.042054,0.043872667,0.045656667,0.047997,0.050179,0.05291,0.056253667,0.059085667,0.062781667,0.066467667,0.070521,0.074729333,0.078974667,0.083747,0.087946,0.092975333,0.097687,0.102002333,0.106569,0.111464667,0.116060667,0.120455,0.125793,0.130874667,0.136629667,0.142437333,0.147135,0.152327333,0.157331667,0.162662,0.168137333,0.173401,0.178339333,0.183096333,0.187334333,0.192004,0.196186,0.199596333,0.202750333,0.205728,0.207883333,0.210389333,0.211143,0.212734333,0.214240667,0.215018333,0.215657,0.218046667,0.218964,0.219953333,0.220843333,0.221037,0.222055667,0.221845667,0.221873,0.221171667,0.220213,0.217860667,0.216527,0.213109,0.210485333,0.206539667,0.202537,0.199459333,0.195397333,0.190999333,0.187583333,0.184156667,0.180269667,0.176400333,0.173076667,0.169078333,0.164285,0.160725333,0.157799667,0.153543,0.149785,0.145943667,0.142278667,0.137632,0.133427,0.130326,0.126574333,0.122610333,0.118644667,0.114985667,0.111209333,0.108004,0.103844,0.100425333,0.095812333,0.091044333,0.088065,0.085742333,0.082285333,0.079323667,0.075381,0.071985667,0.068973667,0.067353,0.064320667,0.061569,0.058828333,0.056760667,0.054369667,0.052026667,0.049219667,0.049696333,0.047063667,0.046693667,0.045427667
0.524993,0.525606333,0.526302667,0.526857,0.527466333,0.528555,0.529269333,0.530580667,0.531432333,0.532351667,0.532696333,0.533437333,0.533405,0.533878667,0.534472,0.533906333,0.533537,0.532805333,0.53203,0.532277,0.531794667,0.531037,0.530262667,0.528942,0.527596,0.525761667,0.522876333,0.517687333,0.510997333,0.503802,0.497718667,0.493881333,0.492231,0.490509,0.490018,0.489777,0.488978667,0.488851333,0.488538,0.488465667,0.488679333,0.489280333,0.490077667,0.490949667,0.491908333,0.492852333,0.493558667,0.493674667,0.494648667,0.495594667,0.495872,0.496266333,0.496363,0.496074667,0.495426,0.495064333,0.493978667,0.492544333,0.490441667,0.487704667,0.484546,0.480546,0.476664333,0.471680667,0.465821,0.459008,0.451285,0.443226333,0.435829333,0.428709,0.421608667,0.414593333,0.407392333,0.398010667,0.385013667,0.367272333,0.342635333,0.310165,0.273257667,0.23722,0.206058,0.181263667,0.164202667,0.152408,0.144515667,0.138965,0.135103333,0.132926,0.131765,0.131274667,0.131563667,0.132404,0.134255667,0.137802667,0.142766,0.148720333,0.155679333,0.162772,0.170782667,0.179022,0.187609333,0.196339667,0.204867333,0.213351,0.221804667,0.230238,0.238472667,0.246499,0.254635333,0.262335,0.269892,0.277087667,0.283522,0.28983,0.295479667,0.300597,0.305691333,0.310690667,0.315392,0.319871,0.323933333,0.327645333,0.331032667,0.334672333,0.337488,0.340784333,0.342965667,0.345387,0.347321,0.349316333,0.350692333,0.352170667,0.353071,0.353584,0.353630333,0.353319667,0.352455333,0.350975,0.349965,0.349019333,0.347304333,0.345208,0.343365667,0.340966333,0.338730333,0.334920667,0.331499667,0.328189,0.323760333,0.319739333,0.315131333,0.310231667,0.305603667,0.301157667,0.297063,0.294132,0.291485,0.289994,0.289111333,0.288655667,0.288211333,0.288787333,0.288691,0.288970333,0.288349333,0.287359333,0.285591333,0.282461667,0.277454,0.269846,0.259463667,0.244979,0.226824667,0.206207,0.179561333,0.149193,0.119535333,0.092857,0.071612,0.056454,0.046646,0.040694,0.037724333,0.036522,0.035898333,0.034703333,0.035098667,0.035726,0.035927667,0.037002667,0.038059,0.039377667,0.041278333,0.043239667,0.045371667,0.047555,0.050328333,0.053410667,0.056372333,0.059941,0.063547,0.067251333,0.071553,0.075643333,0.079890667,0.084223333,0.088349,0.092627667,0.097043333,0.102299333,0.106442667,0.111641,0.116306667,0.121375667,0.126877333,0.132229667,0.138296667,0.143003667,0.148183667,0.153429333,0.158728667,0.164340333,0.169062,0.174829333,0.178974667,0.183992,0.18834,0.192170667,0.19578,0.198959667,0.20107,0.203755,0.205193,0.206758667,0.208273333,0.209517,0.211334,0.213169667,0.214229,0.215951,0.216617,0.217553,0.217876667,0.217811333,0.217381667,0.217477333,0.215879,0.214144333,0.211825,0.209203333,0.205647,0.201916,0.197437667,0.19343,0.190119333,0.186026,0.181642667,0.177901667,0.173983,0.169888667,0.166185333,0.16194,0.157641,0.154278,0.150556333,0.146336,0.143042667,0.13955,0.134403,0.129059,0.125467,0.122298667,0.118616333,0.114373667,0.109873,0.106177333,0.103160667,0.099551667,0.096159667,0.092231333,0.088284667,0.085338667,0.081998333,0.079191667,0.076478,0.072877667,0.069409333,0.06633,0.064085,0.060586333,0.057335333,0.055681667,0.054583,0.051604333,0.049281,0.048063,0.047567333,0.043737,0.043067,0.041690667,0.042767667
0.509645667,0.510799,0.511839667,0.513413667,0.513566333,0.514385333,0.515906,0.517129667,0.517493,0.518364,0.519073333,0.518935,0.519077667,0.51951,0.519787333,0.519542333,0.519132,0.518937,0.518677667,0.517935333,0.517389,0.516904,0.516165333,0.514956333,0.513757667,0.512138,0.509328,0.504629667,0.498206667,0.491402667,0.485565667,0.481323667,0.479247333,0.477536333,0.47589,0.475434667,0.474613,0.474144,0.473294667,0.473097333,0.473057333,0.473485,0.474215,0.474903667,0.475819667,0.476794333,0.477526333,0.478086,0.478815333,0.479738333,0.479756,0.480336,0.480835667,0.480694667,0.480149,0.479473667,0.478288667,0.477169667,0.475488667,0.473158667,0.470257667,0.466683667,0.463145,0.458162667,0.452687667,0.446539,0.439514333,0.431969,0.424627667,0.417818667,0.411358333,0.405425333,0.399061333,0.390961333,0.379571333,0.363368667,0.341493667,0.311690333,0.276885667,0.242730333,0.212126,0.186975,0.168795333,0.155453667,0.145920333,0.139220333,0.134231667,0.130684667,0.128613,0.127567,0.126975,0.127636333,0.129022667,0.131743,0.136252667,0.141308,0.147768,0.154527,0.161875333,0.169478333,0.177361667,0.185300333,0.193275,0.201320667,0.209081,0.216747333,0.224381,0.231913333,0.2391,0.245683667,0.252768,0.259041333,0.264914667,0.270345,0.275415667,0.280267,0.285067667,0.289620333,0.294055333,0.298562667,0.302707667,0.306288333,0.309500333,0.313419333,0.316515333,0.319315333,0.322089,0.325057333,0.327224333,0.32894,0.330931667,0.332206667,0.332973667,0.333848333,0.334154,0.333854,0.333277333,0.331859333,0.330565,0.328825,0.326927333,0.325356333,0.323656667,0.321683667,0.319753,0.316877667,0.313789,0.310487333,0.30687,0.303236333,0.298622333,0.294492667,0.290317333,0.286631667,0.283159,0.280260333,0.278553333,0.278062667,0.277151333,0.277065667,0.277666333,0.278132,0.278479667,0.278771667,0.278768667,0.278143,0.276685667,0.274495,0.270437333,0.264618,0.255795,0.243521667,0.227408,0.208691333,0.184901667,0.155451333,0.125681333,0.095798667,0.070728,0.052286333,0.039962,0.032839667,0.030071333,0.027697,0.026491667,0.025933333,0.025762667,0.025909667,0.026554,0.027735333,0.028474333,0.030283,0.032374333,0.034527667,0.036509667,0.039482667,0.042021,0.045353,0.048788667,0.052359333,0.056585,0.060346,0.064874667,0.068924,0.073160333,0.077742333,0.082192333,0.086606,0.090815333,0.095453,0.099626333,0.103871667,0.108712333,0.113280333,0.117790333,0.122514,0.127161333,0.132144,0.137315667,0.142001,0.146749667,0.151524667,0.156481,0.160711667,0.165910667,0.169771,0.174269333,0.178273667,0.182017,0.185460667,0.188089667,0.190391333,0.192589667,0.194984667,0.197233333,0.198641667,0.200672,0.202815333,0.204455667,0.206336,0.208112333,0.209161333,0.210173667,0.211024,0.210489333,0.209979667,0.209217667,0.207761333,0.205011,0.201895,0.197953,0.193545667,0.189163333,0.184347,0.179844,0.175057333,0.170465667,0.165889,0.162005667,0.159033333,0.155581,0.151309,0.146764333,0.143637667,0.141206667,0.13757,0.134061,0.130588667,0.126299,0.121851,0.119006667,0.116002333,0.111894,0.107915,0.104158667,0.1011,0.098036667,0.094115,0.089789333,0.087424667,0.084579667,0.080144667,0.075911,0.072679,0.070751333,0.066157,0.062610333,0.05939,0.057263,0.053789667,0.051115,0.048231333,0.045607667,0.043814667,0.041056,0.039883,0.036945,0.036674667,0.035573333,0.035172,0.034924333
0.566057,0.567185,0.568464333,0.569505,0.570311,0.571221667,0.572909667,0.574139667,0.574488333,0.575546,0.575609333,0.575369,0.575611,0.575628667,0.575545333,0.575259667,0.575147667,0.574575,0.573951667,0.573472333,0.572571333,0.571889333,0.570845,0.569651,0.568344333,0.566230333,0.562883333,0.557942333,0.551331,0.543924667,0.537709667,0.532818333,0.530546333,0.529435667,0.528032667,0.526718,0.525586667,0.524965,0.523819667,0.523348333,0.523679,0.523826,0.524421667,0.525270667,0.526467333,0.527298,0.528256,0.528812,0.528964667,0.529944667,0.530504333,0.530769333,0.531005,0.530717333,0.530018333,0.529619,0.528426,0.526978333,0.524763,0.522494333,0.519625667,0.515411667,0.511785333,0.507006333,0.501086667,0.494508667,0.487314,0.479324333,0.47165,0.464633333,0.457578667,0.450774667,0.444063667,0.435561667,0.423822667,0.407139,0.384402333,0.353794333,0.317972333,0.282497333,0.251368333,0.225836333,0.207341333,0.193757333,0.184089667,0.177158333,0.172420333,0.16928,0.166893667,0.166003333,0.165518667,0.16608,0.167288333,0.170125667,0.174729,0.180124,0.186384667,0.193030667,0.200626,0.208176333,0.216026333,0.224126667,0.232193,0.240266333,0.247716,0.255959667,0.263348,0.270649333,0.277828,0.284534667,0.291501667,0.297575333,0.303319333,0.308802667,0.313777333,0.318765,0.323494333,0.328167,0.332456667,0.337202,0.341716667,0.345401667,0.348472667,0.352405,0.355088667,0.358312333,0.361130333,0.363913,0.366444333,0.368613,0.370158,0.371667667,0.372474667,0.372727667,0.373454667,0.373273333,0.372645667,0.370656333,0.368989,0.366897,0.364926,0.362890667,0.361243333,0.359011667,0.357343,0.354602333,0.350883,0.347828333,0.344158333,0.339631333,0.335339667,0.331243,0.326756667,0.323073,0.319134333,0.316291667,0.313845333,0.312987667,0.312522333,0.313026,0.313128667,0.313725333,0.313867333,0.314063667,0.313408667,0.312501667,0.311656,0.308770667,0.304780667,0.298604333,0.289602,0.277563667,0.262412333,0.244996667,0.222081333,0.192598667,0.161973,0.131179667,0.106794,0.086851333,0.075064,0.067235667,0.063114333,0.060927333,0.059243333,0.058642667,0.058527333,0.059101,0.060044,0.061001,0.06262,0.064698667,0.067173333,0.069655,0.071942333,0.074987,0.078148,0.081752333,0.085273,0.089305333,0.093394667,0.097387333,0.101860667,0.105867333,0.110412333,0.115269,0.119262333,0.123522667,0.127866667,0.132085,0.136867,0.140256333,0.144551333,0.149409,0.154013,0.15813,0.162639333,0.167290667,0.171451,0.176715,0.180466,0.184875333,0.189991333,0.194468667,0.198957333,0.203395667,0.207253333,0.211276,0.214245,0.217638333,0.220397333,0.222320333,0.224461667,0.226203,0.228093667,0.230309333,0.231231,0.233271667,0.235030333,0.236763667,0.238142333,0.239369333,0.239864333,0.239966,0.240247,0.239789333,0.238959667,0.236607667,0.234190667,0.23105,0.227290667,0.223239,0.218562667,0.213641,0.208891667,0.204271333,0.199295667,0.195074333,0.192043667,0.188671,0.185382333,0.181398667,0.177048667,0.173128,0.169986,0.167198667,0.164351667,0.160886333,0.156439667,0.152451333,0.149499667,0.146284667,0.142297667,0.139252,0.135559667,0.131566333,0.127936,0.125333,0.122124333,0.11828,0.1142,0.109929,0.106692,0.103206333,0.099715,0.097494667,0.094982333,0.091260333,0.087559667,0.083592,0.080910667,0.078581,0.075822333,0.072854333,0.070941667,0.070439667,0.067978667,0.065649,0.064408,0.062268333,0.060833
0.508414,0.509967333,0.511499333,0.513113,0.514344,0.514973,0.516531667,0.517964,0.518106333,0.518880667,0.519551,0.520282333,0.520879667,0.520847667,0.521035667,0.520891,0.520948,0.52032,0.519543667,0.518852667,0.518033667,0.517466333,0.516905333,0.516050333,0.514807667,0.512995333,0.510108333,0.504838333,0.498093,0.490533667,0.484544333,0.479750667,0.477336333,0.475562667,0.473917333,0.473159,0.472545333,0.471682,0.470326333,0.470253667,0.470529,0.471091667,0.471949333,0.472511667,0.473804,0.474738,0.475753667,0.476424333,0.47687,0.477751333,0.478241667,0.479153667,0.479370333,0.479042667,0.478814333,0.478072333,0.476990667,0.475868333,0.474129667,0.471470333,0.468045,0.464518333,0.460797333,0.455325333,0.449508,0.443138333,0.435782667,0.427749,0.419945667,0.412776,0.405913,0.399220333,0.392186333,0.383686,0.371654667,0.354903333,0.331961333,0.301354,0.265794,0.230834333,0.199544667,0.174159667,0.155941667,0.142699667,0.133286333,0.126528,0.121652667,0.118422667,0.116390333,0.115273667,0.114767,0.11525,0.116547,0.119218667,0.123432667,0.128708667,0.134786,0.141332333,0.148747333,0.156353667,0.164081333,0.171857333,0.179925667,0.187781333,0.195284667,0.203135333,0.210913667,0.218262333,0.225439667,0.232466333,0.239318667,0.245775,0.251660333,0.256876667,0.262077667,0.267022,0.27224,0.276959667,0.281527667,0.286140333,0.290071,0.293941,0.297985667,0.301959667,0.304833667,0.307878333,0.310835,0.313705,0.315987333,0.317899,0.319779,0.321248667,0.322002667,0.322997333,0.323601333,0.323234,0.322431667,0.320613667,0.319232667,0.317025667,0.315415333,0.313898333,0.312145333,0.31,0.307961,0.30521,0.302005333,0.298648,0.294700667,0.290687667,0.286023,0.281765,0.277337667,0.273794333,0.269983333,0.266892667,0.264972,0.264356333,0.263874667,0.263577333,0.264291667,0.265228333,0.265408333,0.265636333,0.26593,0.265474333,0.264349,0.261733,0.257871667,0.252190333,0.243328333,0.230788,0.214672,0.195269667,0.171378667,0.141906667,0.112518,0.085940667,0.061997333,0.045733333,0.033946667,0.02835,0.025698333,0.023986333,0.023163,0.022601667,0.022687,0.022799333,0.023002,0.024338,0.025024333,0.026548667,0.028014,0.029899333,0.031484667,0.033885667,0.036421,0.038514667,0.042121,0.045227333,0.048838,0.052176667,0.056358667,0.059742,0.063733,0.068057,0.071741333,0.076035,0.080524667,0.084094,0.087986,0.092028,0.096262,0.100142667,0.104738,0.109280667,0.113897,0.118375667,0.122586333,0.126732667,0.130997667,0.135871,0.139981667,0.145282667,0.149069667,0.153467,0.158392,0.161750333,0.165112667,0.168549667,0.171634,0.174769333,0.177359333,0.178965667,0.181372,0.184076667,0.185977667,0.187491667,0.189948667,0.191873,0.192965,0.194256333,0.195589,0.195338333,0.196029667,0.195713333,0.19516,0.193690667,0.191511333,0.187306,0.183492667,0.178845667,0.174348,0.16924,0.164199667,0.159858667,0.154851667,0.150884333,0.147594333,0.144133667,0.140754,0.136955667,0.132818333,0.129448,0.126217667,0.123085333,0.120049,0.116976667,0.113404667,0.110158333,0.106243333,0.102568,0.099767,0.096834,0.093267333,0.089915667,0.086911333,0.083816667,0.080871667,0.077512333,0.073445333,0.069673333,0.067461667,0.064553,0.061336667,0.059011667,0.056220333,0.052537,0.048846667,0.046151,0.044608667,0.042020667,0.038832333,0.037107667,0.036016667,0.035628333,0.034387333,0.03318,0.033036333,0.032526333,0.033529667
0.550029333,0.551894,0.554032,0.555824667,0.557263333,0.558363333,0.559372667,0.560175667,0.560831,0.562441,0.562884,0.563161,0.563774667,0.564181667,0.564136333,0.563678667,0.563511667,0.562971667,0.561793333,0.561502333,0.560440333,0.559429,0.558543,0.556798,0.555088,0.552646667,0.548890667,0.542836333,0.534802,0.525409,0.517877,0.512451,0.509663,0.50751,0.506329667,0.505715667,0.504435667,0.503404,0.502340667,0.502096667,0.502347667,0.502948,0.503993667,0.504991333,0.506288,0.507097667,0.508005333,0.508854667,0.509612333,0.510929667,0.511437667,0.511969333,0.511967667,0.511926,0.511561333,0.510909,0.509529333,0.507833667,0.505599,0.502584333,0.499003667,0.494619333,0.489765,0.483908,0.477092,0.468837333,0.460541,0.451297,0.442173,0.433759667,0.425745,0.418249333,0.410079,0.400350333,0.387083667,0.368831,0.343373333,0.31021,0.27277,0.236221,0.204618,0.179412333,0.161833667,0.14927,0.140669,0.134573,0.130218,0.127407333,0.125810333,0.124999667,0.124784,0.125311333,0.126836,0.129635,0.133494,0.138615667,0.144663333,0.151003333,0.158176,0.165809333,0.173525667,0.181406667,0.189397,0.197614667,0.205362667,0.213251333,0.221094333,0.228757667,0.235912,0.243134667,0.250552,0.257489,0.263423333,0.269146667,0.274616333,0.279797,0.284997333,0.289820667,0.294836333,0.299532333,0.303913667,0.308483667,0.311938667,0.316017,0.319102333,0.322559333,0.325568,0.328266667,0.330801,0.33297,0.334632333,0.336359667,0.337752667,0.338532667,0.338871333,0.338621333,0.33739,0.335448667,0.333609333,0.331715,0.329813667,0.328059333,0.325909667,0.323552333,0.321555667,0.318571667,0.314739,0.310883667,0.306995,0.302341667,0.297851667,0.293397,0.288648333,0.284389333,0.280435333,0.277254667,0.274832333,0.273664333,0.272830333,0.272982,0.273052,0.273343333,0.273915667,0.274432667,0.273933333,0.273722,0.272032667,0.269499667,0.265196,0.258382,0.248902,0.236104333,0.220381333,0.201357,0.176725,0.147750667,0.120786,0.095672,0.075054667,0.060995667,0.052943,0.047595333,0.044235,0.042550333,0.041770667,0.041397667,0.041196667,0.041791333,0.042170667,0.043263333,0.044185667,0.045309,0.047020333,0.048163,0.050296,0.052143,0.054396667,0.056689333,0.059451333,0.061722333,0.064938,0.068359333,0.071531667,0.074904,0.078229667,0.081775,0.085711,0.089149,0.092543667,0.096242,0.099523333,0.103027333,0.107014333,0.111453,0.115263667,0.119306,0.123234667,0.127399,0.130998667,0.135098,0.139437667,0.143343333,0.147300333,0.151952333,0.156129333,0.160596333,0.163966667,0.166950667,0.170409667,0.173503,0.176032333,0.17832,0.180352,0.182312,0.184223333,0.185680333,0.186834333,0.188876,0.190909333,0.191801667,0.193346333,0.194356,0.195011,0.195286,0.195612333,0.194632,0.194045,0.192083,0.189971667,0.186956667,0.183662,0.179976667,0.175582,0.170640333,0.166321333,0.162219667,0.158047333,0.154086333,0.150712667,0.148097333,0.145183667,0.140758,0.137019667,0.134099333,0.130746,0.128004667,0.125914667,0.122884,0.118584,0.115372667,0.112302667,0.10984,0.107119667,0.103324333,0.100058667,0.097333,0.094035333,0.090828667,0.088068,0.085679,0.083072667,0.080929667,0.077770333,0.074564333,0.072183667,0.070631333,0.067663667,0.064631333,0.061794667,0.060746,0.058895,0.057096667,0.054465667,0.051495333,0.050293,0.049426333,0.047539333,0.046825333,0.04662,0.04584,0.046333
0.512196,0.513035,0.513995667,0.514913333,0.515482333,0.516294333,0.516765,0.517472333,0.517867333,0.519249,0.519364667,0.518973667,0.520083,0.520579667,0.520939333,0.520657667,0.520232333,0.519301667,0.518840333,0.518505,0.517707333,0.516999667,0.516926667,0.515956667,0.514817,0.513626667,0.511528333,0.50703,0.501603,0.495167,0.490336,0.487545333,0.485801333,0.484621,0.484216,0.484117667,0.483640333,0.483571333,0.482860667,0.482881,0.483121333,0.483679333,0.484418,0.484908,0.485713667,0.486409,0.486752333,0.487175667,0.487881667,0.488997,0.489098667,0.489537667,0.489556333,0.48913,0.488485333,0.488289333,0.487459,0.486069667,0.484077667,0.482066,0.479505333,0.476260333,0.472957333,0.468719333,0.463895667,0.458232667,0.451956333,0.445192,0.438834667,0.432714,0.426823667,0.420588667,0.414023333,0.406161333,0.394856667,0.379385667,0.357899333,0.328668667,0.294744333,0.261147667,0.230999333,0.206390667,0.189031,0.176704667,0.168473333,0.162991667,0.159244667,0.156882667,0.155805667,0.155665,0.156028667,0.157231667,0.159281,0.162996333,0.168271667,0.174682667,0.181975,0.189421667,0.197800333,0.206131667,0.214338667,0.222853,0.231304333,0.239750667,0.247854,0.255716667,0.263599333,0.271410333,0.278914333,0.286007,0.293026333,0.299446333,0.305155333,0.310386,0.315736333,0.320511667,0.325194333,0.329744333,0.33352,0.337480667,0.340854333,0.344407,0.347597333,0.350652667,0.353441667,0.355942333,0.358360667,0.360668,0.362290333,0.363898333,0.365082,0.366679,0.367161,0.367626667,0.367716,0.366875333,0.366235,0.364736,0.363651,0.362102333,0.360463333,0.358702,0.357471,0.355222333,0.352942,0.349875,0.346845667,0.343513,0.340221,0.336429333,0.331858,0.327237,0.323263,0.319450333,0.315971333,0.313138667,0.310804667,0.309372667,0.307976333,0.307677333,0.307404667,0.308288,0.308381333,0.308425333,0.307836333,0.30699,0.305008333,0.301861667,0.297906333,0.291017333,0.28114,0.267900667,0.250427333,0.229718,0.201638333,0.169168333,0.138376333,0.109798333,0.084644667,0.066616333,0.055566333,0.048336333,0.045650667,0.043141,0.041917333,0.041381667,0.041586,0.042327,0.042907667,0.04479,0.045884,0.047956667,0.049890667,0.052202667,0.055041667,0.058036333,0.061438333,0.065324333,0.068963,0.073232667,0.077846333,0.082053,0.087246333,0.091701333,0.096873333,0.101917,0.106776,0.111555333,0.116867667,0.121294333,0.125759667,0.130791667,0.136071,0.140893333,0.146905,0.151559333,0.156864,0.162564333,0.167555,0.173359667,0.177662667,0.183090333,0.188038,0.192987,0.197523667,0.201782,0.206341667,0.209910667,0.212949,0.215562667,0.2182,0.220263667,0.221750333,0.223173,0.223563,0.225368667,0.226285333,0.228001333,0.229717,0.230878667,0.231570667,0.232452,0.232873667,0.232895333,0.232248667,0.231881667,0.230531,0.229493667,0.226747333,0.223893667,0.220766667,0.216773333,0.213043333,0.208816,0.203944333,0.200287,0.19676,0.192485,0.189027667,0.185734,0.181524667,0.17736,0.173005,0.169896667,0.166851667,0.163071333,0.159250333,0.155525667,0.15129,0.146855333,0.142915667,0.138967,0.135140667,0.131279667,0.127021333,0.123064667,0.119524333,0.115987,0.111657333,0.108464667,0.105401,0.100931667,0.096986667,0.093220333,0.090555,0.088090333,0.083975667,0.079622333,0.075668667,0.072866,0.069395,0.067179667,0.064499667,0.062459333,0.060637333,0.057601333,0.055344667,0.053185667,0.051922333,0.050222667,0.051324333
0.509284667,0.511062667,0.512977333,0.514876667,0.515755333,0.516907333,0.517183667,0.517791667,0.518927333,0.520345,0.520299,0.519863667,0.520507667,0.520644667,0.520709333,0.520639333,0.520558,0.519778667,0.519718333,0.519017,0.518176,0.517484,0.516456333,0.514953667,0.513499667,0.512020667,0.508875667,0.503569,0.496668333,0.489692333,0.483603667,0.478664333,0.476422,0.475314333,0.474483333,0.474052333,0.472948667,0.472242333,0.471573,0.471657,0.471743333,0.47182,0.472492667,0.473539,0.474586667,0.475663667,0.476203333,0.476765,0.477535,0.478112,0.47846,0.478997333,0.479018667,0.478877667,0.478585333,0.477815,0.476469333,0.475055667,0.473042667,0.470417,0.467389,0.463512333,0.459722667,0.454745667,0.449149667,0.442235333,0.434846,0.427551333,0.419879,0.412712,0.405902667,0.399315667,0.392319,0.383561333,0.371764667,0.355310667,0.332463667,0.302414333,0.267946667,0.234286,0.204984667,0.181634333,0.165042333,0.153263667,0.145128667,0.139675,0.135737,0.133502,0.132064667,0.131458667,0.131381,0.132142667,0.133620333,0.136592333,0.140969333,0.146219333,0.152361333,0.159032,0.166078333,0.173458,0.180991667,0.188733667,0.196408333,0.20428,0.211598,0.219294333,0.226674333,0.233774,0.240764,0.247440667,0.254179333,0.260411667,0.265797,0.271356333,0.276295,0.28099,0.285856,0.290491,0.294831667,0.298931,0.302803333,0.306554333,0.309728667,0.313042667,0.315833667,0.318543667,0.321011667,0.323373667,0.325823,0.327918,0.329308667,0.330329,0.330927333,0.331347667,0.331509667,0.331200333,0.330514333,0.328727333,0.327071,0.325110333,0.323415667,0.321658,0.319690667,0.317621667,0.315577333,0.313075333,0.309598,0.306300333,0.302756,0.298667333,0.294233333,0.290032333,0.285944333,0.282257333,0.278464333,0.275687,0.273607667,0.272643,0.271557,0.271547667,0.27243,0.271983333,0.271894,0.272049333,0.271641333,0.270991667,0.269313667,0.266549333,0.262483,0.255962667,0.247194,0.235531667,0.220570333,0.203291667,0.180423667,0.152286667,0.124346,0.098301,0.077626333,0.062023333,0.052702,0.046034333,0.044369667,0.042224667,0.041426,0.041182,0.041027667,0.041433667,0.042286,0.043272333,0.044399667,0.045861,0.047295333,0.049314667,0.051119,0.053512,0.056139333,0.058903667,0.061589667,0.065099333,0.068469667,0.072312,0.075665667,0.079673667,0.083717,0.087407,0.091767333,0.095501333,0.099463667,0.103471,0.107200333,0.111379,0.115647333,0.119882333,0.124501667,0.128954667,0.133664,0.137915667,0.142620667,0.147276333,0.151346,0.155588,0.160329333,0.164438,0.168659333,0.172913,0.177128333,0.180149667,0.183523667,0.185772667,0.188171667,0.189967667,0.191542333,0.193030333,0.194898333,0.196389333,0.197941667,0.199255,0.201411,0.202527333,0.203457333,0.204142333,0.205182667,0.206069667,0.205558333,0.205295333,0.203506333,0.202662667,0.200640333,0.197892,0.194432667,0.190300667,0.185836,0.181438667,0.177437333,0.172763667,0.168764333,0.165475333,0.162232333,0.159061,0.155645,0.151633,0.147405,0.144269667,0.141398,0.138676,0.135572,0.132054,0.128305333,0.123803,0.120957333,0.118407,0.114781333,0.11072,0.107541,0.104875333,0.101609333,0.097670333,0.095153,0.091912667,0.088019,0.085262,0.082941667,0.079853,0.076963333,0.075629667,0.073582667,0.069007,0.064863667,0.061866667,0.06063,0.057457,0.055036667,0.052830333,0.051556667,0.049912,0.049292333,0.047308333,0.045784667,0.044838333,0.043672
0.482069333,0.483413,0.485161667,0.486344667,0.486770667,0.487523,0.488469667,0.489169,0.489432333,0.490435667,0.491251333,0.491273,0.491197,0.491456,0.491843333,0.491403333,0.491284,0.491423,0.490696,0.489935333,0.489562,0.489124333,0.488052,0.487211667,0.486424,0.484666667,0.482100333,0.477582,0.471707,0.466122333,0.461630333,0.457869,0.455992667,0.455053667,0.454534333,0.454533667,0.45421,0.453861,0.453371333,0.453150333,0.453228,0.454045667,0.454866,0.455418333,0.455946,0.456802,0.457378667,0.457387,0.457589,0.458587,0.458938667,0.459291333,0.459256,0.459278,0.458815667,0.458212667,0.457215667,0.455796,0.453891,0.452003667,0.449318333,0.446009333,0.442749667,0.438353667,0.433189667,0.427612333,0.421450333,0.414699,0.4083,0.402419667,0.396590667,0.390582667,0.384131667,0.376167333,0.36504,0.349718,0.327948,0.298812,0.265178333,0.231954333,0.202728333,0.179095333,0.162184667,0.150633333,0.142913,0.137419333,0.133685667,0.131545667,0.130473667,0.130074333,0.130137333,0.131190667,0.133287,0.13661,0.141653,0.147722333,0.154526667,0.161674,0.169343667,0.177737667,0.185656667,0.193960667,0.20229,0.210514333,0.218274,0.226267333,0.234147,0.241845667,0.249116667,0.256155667,0.262922,0.269478667,0.27522,0.280427,0.285659,0.290671,0.295393333,0.299532333,0.303540333,0.307627,0.311099333,0.314710667,0.317904333,0.320887333,0.323204667,0.325739667,0.328102333,0.330104333,0.332069333,0.333783,0.334869667,0.335989333,0.336735333,0.337159667,0.337643333,0.337028333,0.336431667,0.335217,0.333982667,0.332614667,0.331284667,0.329534667,0.327829667,0.325780667,0.323626333,0.320571,0.317832667,0.314893667,0.311351,0.307562,0.303200333,0.298989333,0.294669667,0.290589333,0.286829333,0.284616333,0.282061667,0.280797667,0.279962667,0.279247667,0.279119333,0.279448333,0.279238333,0.279046667,0.27834,0.277164667,0.275515,0.272804333,0.268199,0.261659667,0.252347667,0.239305333,0.223279,0.205281333,0.181888667,0.152639667,0.120689667,0.093165,0.069528333,0.052657333,0.0425,0.036358,0.033104667,0.032082,0.030760667,0.030476333,0.030261,0.030845,0.031809,0.032304,0.033770333,0.035698667,0.037859333,0.039371,0.041946,0.044906333,0.047967,0.051193333,0.054877333,0.058816,0.062777,0.067294,0.072045667,0.076193,0.081417667,0.086175333,0.090756,0.096430667,0.101420667,0.105650667,0.110794667,0.115559,0.121358,0.12658,0.132306333,0.137828333,0.143426,0.148467667,0.155104667,0.160815667,0.165920667,0.171491333,0.176987333,0.182219333,0.187293,0.192133,0.195944,0.200474667,0.203664,0.206712,0.20884,0.210736667,0.212401333,0.213861,0.214466667,0.217031,0.218473333,0.219884667,0.221179,0.222636333,0.223266333,0.223966333,0.224424333,0.224482,0.223988,0.223978667,0.222198333,0.220924667,0.218618667,0.215506333,0.211751,0.208705667,0.204521667,0.200147333,0.196086,0.191905333,0.187860667,0.184181667,0.180510667,0.176690667,0.172873,0.168308667,0.163985333,0.160724667,0.156837667,0.152719667,0.148053,0.144517,0.140492667,0.135016333,0.131149333,0.127258667,0.12285,0.118876667,0.114602,0.110174333,0.106820667,0.103191,0.098724,0.094678667,0.091549333,0.088339333,0.084472333,0.080689,0.077741667,0.074836333,0.070875667,0.066448667,0.063448333,0.059862333,0.056790333,0.054574667,0.053568333,0.04976,0.046134333,0.046317333,0.044649667,0.042647,0.040698667,0.041667333,0.037933667
0.496483667,0.497819667,0.499382333,0.500716667,0.501394,0.502404333,0.503140667,0.504282,0.50518,0.506183667,0.506000667,0.506255333,0.506463333,0.506474667,0.507333667,0.506779,0.506588333,0.506248333,0.505427,0.505220333,0.504553333,0.503808333,0.502711333,0.502036667,0.500948,0.499,0.496331,0.491505,0.485646667,0.478742,0.473586,0.469665,0.467645333,0.466262667,0.465579667,0.465151333,0.464592333,0.464390667,0.463412333,0.463262667,0.463632667,0.464164333,0.465030333,0.465416,0.466135667,0.466654667,0.46726,0.467778667,0.468384667,0.468937333,0.469265667,0.469632667,0.469773667,0.469808,0.469462667,0.468682,0.467531667,0.466154667,0.464207,0.462249333,0.459322333,0.456073,0.452575333,0.447995,0.442468,0.436215333,0.429615667,0.422769667,0.415759667,0.409309,0.40316,0.397311,0.390592333,0.382587333,0.371424667,0.355730667,0.334255,0.305093667,0.271139333,0.237404333,0.207566333,0.183381333,0.16607,0.153685,0.145155333,0.139127667,0.134842333,0.132250667,0.130801333,0.130056333,0.129985667,0.130675667,0.132300667,0.135394333,0.140031,0.145694667,0.15228,0.159097,0.166551,0.174331667,0.182682,0.190633667,0.198811,0.206966,0.214752,0.222849,0.230525667,0.238024,0.245161667,0.251942,0.259019667,0.265730333,0.271705333,0.277187333,0.282575667,0.287551,0.29214,0.296474667,0.300923333,0.30537,0.308964,0.312212333,0.315572,0.318745667,0.321691667,0.324489667,0.326734333,0.329128667,0.331145333,0.333109667,0.334071333,0.335269333,0.336165667,0.336633667,0.337402,0.337228,0.336712,0.335345,0.334337667,0.332706,0.331522333,0.330017,0.328409667,0.326238667,0.323813333,0.321355333,0.317997333,0.315225667,0.311717,0.307461667,0.303027,0.299011,0.294739667,0.29068,0.287298667,0.284395333,0.282071667,0.280596333,0.279963,0.280088,0.280011,0.279955333,0.280194667,0.280388333,0.279523,0.278428,0.276551667,0.273990333,0.269702333,0.263500333,0.254904333,0.242895333,0.228009,0.211162333,0.188195667,0.158074,0.127600333,0.098447333,0.075020667,0.058414333,0.046255333,0.039632667,0.037921,0.036242667,0.035172667,0.034606667,0.034723,0.035308667,0.035482667,0.036493667,0.037853,0.039159,0.040791667,0.043253667,0.045075667,0.047561,0.050717333,0.053626333,0.057011,0.060652333,0.064677,0.068785667,0.073308,0.077546667,0.082105667,0.087083667,0.091428,0.096323667,0.101355667,0.105399,0.110618333,0.115519333,0.120256,0.125774,0.131226667,0.136165,0.142035667,0.147172333,0.152366,0.158402333,0.163482,0.168317,0.173888667,0.179066333,0.184759667,0.188953667,0.192747333,0.197283667,0.200861333,0.204441,0.206753667,0.209156,0.211391,0.213129,0.215433333,0.216572333,0.217833333,0.219876333,0.220850667,0.222675667,0.223398333,0.22439,0.224369667,0.224686667,0.224537,0.223968667,0.222543,0.220681667,0.218735667,0.215299667,0.211975667,0.208429333,0.204265333,0.199946667,0.195148667,0.191355,0.187295667,0.183078667,0.179611667,0.175696333,0.171719,0.167586667,0.163346667,0.159165,0.15603,0.152442667,0.148390333,0.143944333,0.139425667,0.134825333,0.130667,0.127533667,0.123254333,0.118720333,0.114724,0.110940667,0.107732333,0.103265333,0.099380667,0.096363,0.093516667,0.08911,0.085243,0.083553,0.079673667,0.074654333,0.069921333,0.067125,0.066064,0.063820667,0.059737,0.054404,0.052233333,0.052401,0.050409333,0.048211333,0.046010667,0.045057333,0.042674667,0.039479333,0.038588667
0.539658333,0.540758333,0.542163667,0.543108333,0.543768,0.544606667,0.54559,0.546313667,0.546923,0.547623667,0.547633333,0.547668,0.548106,0.548208667,0.548371667,0.548102,0.547986333,0.547501,0.546901667,0.546360667,0.545779,0.545265667,0.544457333,0.543523333,0.542573,0.541091,0.538417,0.533970667,0.528269333,0.522299667,0.517325,0.513940667,0.512141,0.510992333,0.510314,0.510056333,0.509081,0.508522667,0.508161667,0.5083,0.508535667,0.508942,0.509663,0.51034,0.511144667,0.511910667,0.512674333,0.513187333,0.513519667,0.514203667,0.514422333,0.514640333,0.514679667,0.514362667,0.513874667,0.513519333,0.512474333,0.511187333,0.509533,0.507442333,0.504866333,0.501797667,0.498662667,0.494448333,0.489406,0.483641667,0.477376333,0.470610333,0.463957667,0.457626667,0.451421333,0.445462667,0.438902,0.430766667,0.419452667,0.403717333,0.381458667,0.351722667,0.316877667,0.282037333,0.250430333,0.224489333,0.205832667,0.192356,0.18336,0.177032667,0.1729,0.170564667,0.169388667,0.169046667,0.169344667,0.170457667,0.172666667,0.176540333,0.182011,0.188678333,0.196200333,0.204037,0.212424333,0.220972,0.229796333,0.238425667,0.247114,0.255550667,0.263821333,0.272039333,0.279957333,0.287493667,0.294629333,0.301514,0.308516,0.314872667,0.320511,0.325916333,0.330737333,0.335517333,0.340198,0.344659333,0.348816,0.352949333,0.356803,0.360382,0.363493,0.366931667,0.369805333,0.372414667,0.374799,0.377269,0.379550667,0.381077667,0.382727667,0.383482,0.383999667,0.384617333,0.384815,0.383834667,0.382905,0.380961,0.379354,0.377528,0.375807333,0.373827333,0.372004333,0.370125667,0.368227333,0.365351,0.361845,0.358668333,0.355183333,0.351056333,0.346794667,0.342853,0.338597667,0.334883333,0.331579333,0.328646333,0.326835667,0.325613333,0.324759667,0.324655333,0.325042333,0.325124,0.325152,0.325203333,0.324578333,0.323490667,0.321891,0.319335333,0.315064667,0.308325333,0.299236333,0.28618,0.269146667,0.249743333,0.223721333,0.190763333,0.156516,0.123058667,0.095108,0.073782667,0.059292667,0.051002,0.046950667,0.044447333,0.043215667,0.042631667,0.042824667,0.043562667,0.044496,0.0461,0.048037667,0.050591667,0.053067,0.056229,0.059508333,0.063225333,0.067320667,0.071588667,0.076376667,0.081375333,0.086538,0.091888667,0.097365333,0.102762667,0.108422667,0.113494667,0.119080333,0.124161333,0.129266333,0.134362,0.139177667,0.144077667,0.149301667,0.154820333,0.160326,0.165749667,0.171094667,0.176394667,0.181955,0.186905333,0.192082667,0.196983333,0.201946,0.206977333,0.211856333,0.216425,0.221077667,0.224716333,0.227814333,0.230380667,0.233355667,0.235136667,0.236594,0.238509,0.239749,0.241356667,0.242609333,0.244756333,0.246706,0.248139667,0.249234333,0.250231,0.251383,0.251521,0.251754667,0.251072667,0.250111333,0.248291667,0.245839667,0.242777667,0.238318667,0.233515,0.228317667,0.223060333,0.218343333,0.213174333,0.208229667,0.203726333,0.200079,0.196588,0.192444333,0.18827,0.183792333,0.180295333,0.177238,0.173698,0.170286,0.166480333,0.162090333,0.157724667,0.153727667,0.149848,0.146045,0.141888,0.137617667,0.133701333,0.129732667,0.126040667,0.121893333,0.117794333,0.113796,0.109148,0.104307667,0.100299,0.096198333,0.092615,0.088948,0.085061667,0.080808,0.076965,0.073903,0.071008,0.068116667,0.065233,0.062377333,0.059880333,0.057644,0.056026333,0.055162,0.054666667,0.053263
0.525295,0.526672667,0.528207333,0.529757,0.530228,0.531412,0.532267667,0.533342667,0.533723667,0.534773333,0.534774,0.535038667,0.535178667,0.535395667,0.535731333,0.536198333,0.536126,0.535553333,0.534785,0.534622667,0.533970667,0.533330667,0.532641667,0.531697667,0.530745,0.528822667,0.525817,0.521534,0.515872,0.509462,0.503682667,0.499131667,0.496652333,0.495653333,0.494774333,0.493819667,0.492455,0.491958,0.490997,0.490768333,0.491132333,0.491745333,0.492422667,0.492981333,0.494127,0.495287333,0.496063,0.496610667,0.497161,0.497981667,0.498528667,0.499006667,0.498948,0.498830333,0.498531333,0.498251333,0.49743,0.496473,0.494507667,0.492194333,0.489655667,0.4865,0.482926333,0.478110667,0.47268,0.466640333,0.459803667,0.452587667,0.445546333,0.438594333,0.431984,0.42568,0.418899,0.410664,0.399337667,0.383624,0.361424667,0.331459667,0.296118667,0.261101667,0.229402,0.203306667,0.184065,0.169847667,0.160031333,0.153003333,0.148096,0.144782667,0.142592667,0.141633667,0.141678,0.142100333,0.143656667,0.146560333,0.151156333,0.156766667,0.163587,0.170471333,0.177931333,0.185656,0.193787667,0.201847667,0.210078,0.218006,0.225928333,0.233701,0.240971333,0.248199667,0.255257333,0.262007667,0.268700667,0.274801667,0.280247,0.285385,0.290381,0.29535,0.300116667,0.304688,0.308963333,0.313420667,0.317795,0.321929667,0.325498667,0.329245,0.332372667,0.335487667,0.338106,0.341189333,0.343514,0.345767,0.347590667,0.349264333,0.349832667,0.350290667,0.350845333,0.350012,0.349332333,0.347748667,0.345786333,0.343402667,0.341609667,0.339864667,0.338197,0.336484,0.334278333,0.331423333,0.328255,0.325109667,0.321435667,0.317431,0.312938333,0.308734667,0.304552667,0.301090333,0.297291667,0.294739333,0.292643333,0.292095333,0.291894,0.291791667,0.292455333,0.293204667,0.293153,0.293422,0.293839,0.293438333,0.292077333,0.289842,0.286553667,0.280727667,0.272451,0.260087,0.243359,0.224513667,0.199248,0.167897333,0.138395,0.107228,0.081232333,0.062894667,0.048978667,0.041696333,0.038505,0.035932667,0.034919,0.034242333,0.034176667,0.034746667,0.035465333,0.036442333,0.037938667,0.039106333,0.041282667,0.043594333,0.046446,0.04901,0.052341333,0.055670333,0.059265333,0.063123333,0.067121667,0.071574667,0.076207333,0.080294333,0.084619667,0.089176667,0.09344,0.097856,0.101718667,0.105888667,0.110043,0.113776333,0.118039333,0.122273667,0.126850667,0.130598333,0.135198667,0.139183333,0.143321333,0.147848333,0.151725,0.156,0.160496,0.164984333,0.169424667,0.173862333,0.177818,0.181964,0.185645,0.187846,0.191464333,0.194749667,0.196985,0.198902,0.201034667,0.202914333,0.204535333,0.207174333,0.209983667,0.211466333,0.212652333,0.21458,0.215826667,0.216169333,0.217329,0.216893667,0.215866333,0.214247667,0.210744667,0.207854667,0.203942333,0.198655667,0.193176667,0.188375333,0.183417,0.178265667,0.173113,0.168997,0.166225,0.162534333,0.159564,0.156160333,0.151446667,0.148343667,0.145852333,0.142551333,0.139465333,0.136978333,0.133830333,0.129499667,0.126609333,0.123374,0.120054667,0.116746,0.112810333,0.109180667,0.106380333,0.103674,0.099355333,0.096117,0.093075333,0.08978,0.086287,0.082022667,0.078111667,0.074938667,0.072313,0.069874667,0.066608,0.063035333,0.059754667,0.057542667,0.055545333,0.055893667,0.052736667,0.050527,0.047999667,0.049640333,0.04584,0.042355333,0.040152667
0.528863667,0.530277667,0.532076333,0.533375667,0.533933333,0.534853667,0.535937333,0.536768333,0.537105667,0.538143667,0.538819333,0.538945,0.538945,0.539232,0.539347,0.538661667,0.538182,0.537729333,0.537801333,0.537317,0.536225,0.535245667,0.534534,0.533618,0.532293667,0.530425667,0.527461,0.522749667,0.515964,0.509278,0.503804,0.499726667,0.497410667,0.496159667,0.495611667,0.495426333,0.494213333,0.493563667,0.492918333,0.492948667,0.492957333,0.493151,0.493867333,0.494538667,0.495046667,0.495805,0.496556667,0.496940667,0.497426333,0.498241,0.498266667,0.498727,0.498805333,0.498516333,0.498041667,0.497491,0.496349333,0.494820667,0.493308,0.490803333,0.487675,0.484253,0.480602,0.475921667,0.470313,0.463764667,0.456999667,0.449973333,0.442931,0.436187333,0.429589667,0.423593333,0.417060333,0.408889,0.397552333,0.381601667,0.359453,0.329893667,0.296219667,0.263048333,0.233769667,0.210598333,0.193807667,0.181828333,0.173568667,0.167457667,0.163266667,0.161057667,0.159449667,0.158940667,0.158881,0.159450667,0.161074333,0.163934333,0.168348333,0.173892,0.180098,0.186779333,0.194209,0.201640333,0.209246,0.217133333,0.225042,0.233053,0.240501333,0.247991333,0.255501333,0.262618,0.269816333,0.276780667,0.283750333,0.289889333,0.295615333,0.300923333,0.306034667,0.310781333,0.315418,0.319794667,0.323798667,0.327729667,0.331524667,0.334828,0.337947333,0.341220667,0.344063333,0.346883667,0.349049667,0.351003333,0.353090667,0.354993333,0.356419667,0.357342667,0.357700333,0.358006667,0.358685667,0.358419,0.357928,0.356223333,0.355092,0.353335333,0.351966,0.350483333,0.348991333,0.346779667,0.344372667,0.341405667,0.338607333,0.335615,0.331693667,0.327435333,0.322849667,0.319028333,0.314745,0.310996333,0.307279333,0.304207667,0.302354667,0.301252,0.300209333,0.3006,0.300100667,0.300613667,0.300033667,0.299884333,0.299164,0.298050333,0.296155,0.293439667,0.289246,0.283028333,0.273800667,0.261844,0.24756,0.231216,0.210055333,0.180900667,0.150999,0.123704333,0.100018,0.082281333,0.072231667,0.063545667,0.06065,0.058586333,0.057403,0.056641667,0.057182333,0.057428,0.058037,0.059337,0.061260667,0.063221,0.065346,0.067934333,0.070899,0.073618,0.077091667,0.08016,0.084051,0.087839667,0.091794333,0.096334,0.100506333,0.105099667,0.109686667,0.114437,0.118471,0.12376,0.128125333,0.132852,0.137616,0.142073333,0.147275667,0.151767667,0.157413667,0.162224333,0.167789667,0.172836333,0.177354667,0.182809667,0.187667,0.192630333,0.197884,0.202322667,0.207239333,0.211390333,0.216236,0.219475667,0.222743667,0.225728,0.228342333,0.230475667,0.232382667,0.233726667,0.234615333,0.235847333,0.23795,0.238517667,0.240243667,0.241266667,0.241957,0.242545,0.243799,0.243352333,0.243215667,0.242709,0.241517333,0.239363333,0.236948333,0.23481,0.231176667,0.226914667,0.223397,0.218848,0.214664667,0.211161667,0.20746,0.203791667,0.200138333,0.196952,0.192607333,0.188328667,0.184581333,0.180732333,0.177723667,0.173598667,0.170097333,0.165654333,0.161086,0.157608,0.153466667,0.149630333,0.145858,0.142833667,0.139626667,0.135485,0.131548667,0.127081333,0.122661,0.118846,0.115672,0.112694,0.109328333,0.105491667,0.103718,0.099446,0.095719333,0.092573,0.090338333,0.086786667,0.084292,0.081643333,0.079612333,0.074311667,0.070916667,0.069106333,0.067442667,0.066125333,0.067821667,0.067328,0.063138
0.515388,0.516758333,0.518725333,0.519547,0.521082,0.522188667,0.523633,0.525339,0.525624667,0.526587333,0.526907667,0.527623667,0.527924333,0.528385333,0.528780667,0.528134,0.527592667,0.526900667,0.526267667,0.525731667,0.524952333,0.524077333,0.523371333,0.521872667,0.520330333,0.518682333,0.515486333,0.509401667,0.501355667,0.493155667,0.486447333,0.481458333,0.478952667,0.477958333,0.476911,0.476420667,0.475192,0.474208667,0.473365,0.473737,0.473774333,0.474180667,0.475021667,0.475883667,0.476884,0.478009,0.478960667,0.479410667,0.479988333,0.480926333,0.481221333,0.481765667,0.482011333,0.481713333,0.481235333,0.480488333,0.479345333,0.477757667,0.475831333,0.472953667,0.469282667,0.464957667,0.460829667,0.455189667,0.448627,0.440778333,0.433013,0.424665,0.416268,0.408428,0.400892667,0.393838667,0.386147333,0.376560333,0.363896,0.345852667,0.321365333,0.289562,0.2541,0.220674667,0.192176,0.169811,0.154531667,0.143936,0.136638,0.131289667,0.127526667,0.125492,0.12402,0.123444333,0.123064,0.123551333,0.124832667,0.127298667,0.131149,0.135876333,0.141249,0.147172667,0.153662667,0.160405667,0.167701,0.174878667,0.182194,0.189711,0.196958667,0.204465,0.211743333,0.219115,0.226212333,0.233032667,0.240226333,0.246678667,0.25229,0.25775,0.263371333,0.268137333,0.273259667,0.277944,0.282747,0.287045333,0.290791333,0.294897,0.298204,0.301798,0.304606,0.30792,0.310552,0.312825,0.314996,0.316951333,0.319032667,0.320278,0.320854333,0.321157667,0.321426333,0.321442667,0.320776,0.319046333,0.317586333,0.316251333,0.314850333,0.312305,0.310341667,0.308174,0.306016667,0.30329,0.299686333,0.296464,0.292795333,0.288489333,0.283789667,0.279144,0.274926667,0.271021667,0.266984667,0.264328667,0.261786333,0.260967333,0.259915,0.259949667,0.260045667,0.260008667,0.259904333,0.260231,0.259818,0.259056667,0.257289,0.254229667,0.249875333,0.243377667,0.234406,0.221754667,0.206114667,0.188934,0.167512,0.140813333,0.116238667,0.095227,0.078468333,0.066695333,0.058998333,0.054884333,0.051444667,0.050079,0.049094667,0.048793333,0.048924333,0.049187333,0.049234667,0.050550667,0.051437667,0.052816333,0.053735667,0.055524333,0.057457667,0.058754667,0.060931667,0.062895333,0.065309333,0.067696,0.070041667,0.072861,0.075782,0.078524,0.081370667,0.084439,0.087588667,0.090427,0.093473333,0.096816333,0.100247,0.103287333,0.106735333,0.110251667,0.113661667,0.118057,0.120900333,0.124857,0.128874667,0.132532333,0.136038,0.140079,0.143875333,0.148025333,0.151578667,0.155479333,0.158594333,0.161801667,0.164148667,0.166874333,0.168727333,0.170799667,0.172224333,0.173681,0.174626,0.176005667,0.177168,0.178561667,0.180347667,0.180989667,0.181976,0.182269667,0.182883667,0.183106667,0.183183667,0.182539,0.181666333,0.180202,0.178161,0.175965667,0.172841,0.169463333,0.165994333,0.162386667,0.159043,0.155816667,0.152257333,0.149235333,0.146713333,0.143439,0.140449667,0.136586667,0.133169667,0.130486667,0.127891667,0.125353333,0.122477333,0.119804333,0.116671333,0.113055,0.110246,0.107584333,0.104429333,0.101571,0.099802333,0.097313333,0.094154,0.090844667,0.088824667,0.08663,0.084112,0.081327667,0.078817333,0.07649,0.074426667,0.072187333,0.069683,0.067813667,0.065880667,0.06343,0.061103667,0.059239667,0.057823667,0.057099667,0.056768333,0.054388,0.053071,0.051075,0.05147,0.049970667,0.050432667
0.488078333,0.489375333,0.49094,0.492054333,0.493031333,0.493556667,0.494794667,0.495419,0.495867,0.496543667,0.497125667,0.497492333,0.497812667,0.498301333,0.498407667,0.497664,0.497465,0.497072667,0.496464,0.496277,0.495575,0.494925333,0.494094667,0.492972667,0.491967,0.490553,0.487553667,0.482476,0.476749333,0.47011,0.464961667,0.461352333,0.459143,0.458178,0.457707,0.4573,0.456787333,0.456425333,0.456003,0.455837,0.456080667,0.456574333,0.45724,0.457821,0.458549333,0.459175333,0.460003,0.460081,0.460901333,0.461742333,0.461701,0.462073333,0.461804,0.461766,0.461657,0.461037667,0.459774,0.458412667,0.456933667,0.454520667,0.451650667,0.448224333,0.444924667,0.440421667,0.435208667,0.429499,0.422911667,0.416211667,0.409358,0.403046667,0.397070667,0.391408,0.385309667,0.377163333,0.366435667,0.351021667,0.329557333,0.301202,0.268887,0.236742,0.208116333,0.184951,0.16861,0.156918667,0.148937333,0.143141667,0.139471333,0.137504667,0.136241,0.135657667,0.135798333,0.136554667,0.138625,0.141809667,0.146728667,0.152567667,0.159114667,0.166192667,0.173675667,0.181301667,0.189270333,0.197409333,0.205150333,0.213076667,0.220803,0.228508333,0.235796667,0.242898333,0.250013333,0.256835333,0.263385333,0.269608333,0.275027,0.280037333,0.285014333,0.290053,0.294793333,0.298992,0.302942667,0.306700667,0.310024,0.313372667,0.316492667,0.319953333,0.322163667,0.324415667,0.326708667,0.328993,0.330815333,0.332493667,0.333797,0.334841,0.335425333,0.335894667,0.336055,0.335322333,0.334888333,0.333325333,0.332273333,0.330924667,0.329534333,0.327810333,0.326288333,0.324283333,0.322055333,0.319485333,0.316130333,0.313154333,0.309689,0.306143667,0.302268333,0.298188,0.294207,0.290661333,0.287079333,0.284404667,0.281707,0.280798333,0.280302333,0.280251,0.280016667,0.280347667,0.279985667,0.280121,0.279252,0.278145667,0.276505,0.27372,0.269225,0.263013667,0.254036,0.241713,0.226987333,0.209739667,0.187474667,0.158399333,0.128066333,0.098850333,0.075049667,0.058728333,0.047253333,0.039432,0.037454333,0.035584,0.034027,0.034077,0.034044667,0.034415333,0.035170667,0.036509333,0.038042667,0.039461333,0.041265667,0.044056333,0.046454333,0.049366,0.052587,0.055851333,0.059617,0.063674667,0.068204,0.072211667,0.077256,0.082178,0.086837333,0.092004333,0.096524333,0.101705667,0.106381333,0.111186333,0.115762,0.120768,0.126157667,0.131445667,0.13692,0.142669333,0.147867667,0.152788333,0.159139333,0.164211667,0.168867,0.174380667,0.179323333,0.184142333,0.188866,0.193548,0.197452333,0.201398333,0.204274667,0.207304333,0.209922333,0.211756667,0.213727333,0.214613667,0.215591,0.217480667,0.219276667,0.220217667,0.221762,0.222044,0.223631333,0.224979333,0.225487667,0.225278667,0.225657333,0.224791,0.223400667,0.221546667,0.219688333,0.216443333,0.212923,0.208982,0.204984667,0.200865333,0.196682333,0.192818333,0.189154667,0.185491,0.181873,0.177758667,0.174202333,0.170048333,0.166007,0.162062,0.158342333,0.154902,0.151246333,0.147628667,0.143031333,0.138489333,0.134507,0.130692667,0.127301333,0.122916333,0.118320667,0.114442,0.111952667,0.108462667,0.104534667,0.100011,0.096464,0.092924,0.089324333,0.085557,0.082474667,0.078888667,0.074983333,0.070465667,0.067295333,0.064942333,0.061713667,0.058303,0.055985333,0.053417,0.050588667,0.048659333,0.048197667,0.045971,0.043924,0.043041333,0.044013
0.637779333,0.638898333,0.640228333,0.641191,0.642035667,0.643346667,0.644702333,0.646043,0.646329,0.647933333,0.648294667,0.648698667,0.64888,0.649359667,0.649370333,0.648969,0.649094333,0.648326333,0.647042333,0.646645,0.645696333,0.644725,0.644089333,0.643024667,0.641261333,0.638861667,0.636064333,0.630100667,0.621908,0.612857667,0.605246333,0.60019,0.597855333,0.595323667,0.593841667,0.593258,0.592125333,0.591267667,0.590113333,0.589617,0.589967667,0.590198333,0.59165,0.592689333,0.593704667,0.594631,0.595641,0.596248333,0.597252,0.598229333,0.598271333,0.598789,0.599321333,0.599097333,0.598695,0.597843333,0.596407667,0.594658,0.592602,0.590073333,0.586229333,0.581829333,0.577304333,0.571611,0.564789,0.55689,0.548038333,0.538993667,0.530082333,0.521275667,0.513074333,0.505402,0.497005,0.487098333,0.47288,0.453655667,0.426978,0.391308333,0.350136667,0.309409333,0.272858333,0.242869,0.221303,0.2058,0.195208667,0.187358667,0.181869,0.178698,0.176340333,0.175301,0.175342,0.175962,0.177567,0.180815,0.186164,0.192260667,0.199867,0.207835667,0.216237,0.225101333,0.234517,0.243569,0.252892667,0.262199,0.271192,0.280517,0.289401333,0.29799,0.306199333,0.314202,0.322244333,0.329884333,0.336391333,0.342563,0.348616333,0.354183,0.360375,0.365640667,0.370578,0.375951667,0.380939,0.385369333,0.389315333,0.393731,0.397438,0.401282333,0.404276667,0.407979,0.410396333,0.412702,0.414651667,0.416200333,0.417615667,0.418438,0.419137,0.418796667,0.417975,0.415882667,0.414033,0.412016667,0.409666333,0.407335333,0.405169,0.402823333,0.400419333,0.397229667,0.393185,0.389249667,0.384849,0.379936,0.374713333,0.369482333,0.364479333,0.359825667,0.355261,0.351904333,0.349308,0.347589,0.346705,0.347314333,0.347879,0.348230667,0.348557333,0.349249,0.348745667,0.348033333,0.346606333,0.343637,0.339324,0.332309333,0.322089667,0.307328333,0.288727,0.266628,0.237655667,0.202639667,0.167592,0.135087,0.107730333,0.087789333,0.074636,0.066991,0.062341,0.059317,0.057139333,0.056870667,0.057153,0.057621,0.058511,0.059529667,0.061173333,0.063344333,0.065605,0.068218,0.070890333,0.07432,0.077498333,0.080888667,0.085009667,0.088887333,0.092993333,0.097680333,0.102592667,0.107228,0.111945,0.116451333,0.121615333,0.125758333,0.13101,0.135234333,0.139910333,0.1447,0.148830333,0.153812333,0.158688333,0.163741333,0.168857,0.173061333,0.178278333,0.183145,0.187310667,0.192732,0.196976333,0.202551333,0.206848333,0.212091333,0.216465333,0.220599,0.224404333,0.228036667,0.230780333,0.233313667,0.236209333,0.238450333,0.239599,0.241283667,0.243610667,0.245892333,0.247712,0.249705,0.250504333,0.251969,0.252135667,0.252276667,0.252894,0.252649,0.251284333,0.249833,0.246962,0.242686667,0.239573667,0.234818,0.229355,0.223804333,0.218368,0.21338,0.208463,0.204080333,0.199931,0.196855667,0.193682333,0.188554333,0.183890667,0.180287333,0.176481333,0.173713333,0.170810333,0.166585,0.162254667,0.158155,0.155190333,0.151123,0.146629,0.143354,0.139418333,0.135714333,0.131583,0.128151,0.124071667,0.120424667,0.116155667,0.112940667,0.109047667,0.104495,0.102118333,0.100797,0.096124667,0.091244667,0.087381667,0.084266667,0.080935667,0.079198333,0.077573,0.074781667,0.071336,0.069041,0.067600667,0.065095333,0.062864333,0.061180667,0.063908
0.513664667,0.514605333,0.516152333,0.516783,0.517048667,0.518512333,0.519807667,0.520524667,0.520929667,0.521928,0.521559333,0.521898667,0.522437333,0.522883333,0.523283667,0.522963333,0.522984,0.522186333,0.521404667,0.521100667,0.520183,0.520215667,0.519300667,0.517893667,0.517005667,0.515316667,0.512399333,0.507979,0.501766667,0.494682333,0.489147333,0.485545667,0.483792333,0.48251,0.481951667,0.481385,0.480509333,0.480588,0.480150667,0.480028333,0.480196,0.480812333,0.481523333,0.48212,0.483180333,0.483940667,0.484787,0.485181667,0.485481333,0.486443333,0.487266333,0.487377,0.487514,0.487468667,0.486866333,0.486415,0.485107667,0.483769667,0.482147667,0.479843667,0.476954,0.473515333,0.469870667,0.465101667,0.459521667,0.453025,0.44622,0.439077333,0.432142667,0.425093667,0.418668333,0.412593,0.405514,0.396709667,0.385042667,0.36862,0.345868667,0.315809667,0.281297333,0.247400333,0.217358667,0.193373333,0.176221,0.164445,0.156435667,0.150572333,0.146815667,0.144717667,0.143485,0.143221,0.143297,0.144168,0.146217667,0.149559333,0.154209,0.159992667,0.166927667,0.174266667,0.181806333,0.190001667,0.198076,0.206263333,0.214576333,0.222802667,0.23075,0.238815,0.246524333,0.254054667,0.261366,0.268739333,0.275727,0.28225,0.288140333,0.293795667,0.299160333,0.304176333,0.308869333,0.313370333,0.317782,0.321778333,0.325896,0.329272,0.332354333,0.335892667,0.338623667,0.341547,0.343863333,0.346103667,0.348104667,0.349804,0.351456,0.352563667,0.353153333,0.353473667,0.354090667,0.353622,0.352829,0.351029667,0.349991667,0.348437,0.346978667,0.345166333,0.343458333,0.340943333,0.338513333,0.335473,0.332611333,0.329587333,0.325917333,0.321769,0.316872667,0.312629333,0.308558667,0.304401,0.30098,0.297639,0.295117333,0.294154333,0.292624667,0.292567333,0.292818,0.293227667,0.293172,0.293195,0.292759333,0.292051,0.290072,0.286945667,0.282222333,0.275906667,0.266409,0.253197333,0.236220667,0.216482,0.190588,0.159637,0.130410667,0.103477,0.080697,0.064959667,0.053410667,0.048280667,0.044604,0.042834333,0.041943,0.041149667,0.041290667,0.041874333,0.042524,0.043704333,0.045394333,0.04665,0.048491667,0.050725333,0.053211333,0.055901,0.058737,0.061779333,0.065255667,0.069065667,0.073010333,0.077355,0.081481333,0.085747667,0.090354,0.094165667,0.09916,0.103440667,0.107911,0.112302333,0.116591667,0.121034,0.125827,0.130634667,0.135739333,0.140406,0.145723333,0.149708,0.155568667,0.159915,0.164838,0.170069667,0.174258,0.178979333,0.183094667,0.187326667,0.191684,0.195468333,0.198376,0.201025,0.203449,0.206088333,0.206868333,0.208008667,0.209813667,0.210503,0.211845333,0.213402333,0.214391333,0.216839,0.216805,0.217786667,0.218656,0.218574333,0.218212,0.217493,0.215936667,0.214475667,0.211953,0.209971667,0.206537,0.202298667,0.198427333,0.19444,0.190085,0.185945333,0.182803333,0.178629667,0.174633333,0.171980667,0.168191,0.163481,0.159757333,0.156301333,0.153068333,0.150185,0.146554333,0.142494,0.138952333,0.134291,0.129783,0.126282,0.122942667,0.119098,0.115111333,0.111909667,0.108874,0.105869333,0.101528667,0.098555333,0.095861333,0.092291667,0.088021333,0.084310333,0.080942667,0.077926333,0.074402,0.071572667,0.068231,0.064667,0.062125,0.059560667,0.056132333,0.053904667,0.053260667,0.051576333,0.049063667,0.047351333,0.046165667,0.047201333,0.046012667
0.546244667,0.547383333,0.548603667,0.549901,0.550585,0.551654,0.552310667,0.553145,0.553823667,0.554667,0.554821667,0.554637667,0.554773667,0.555413667,0.555505,0.554952333,0.554728333,0.553988667,0.553663,0.553227667,0.553188333,0.552714667,0.551391667,0.550468333,0.549416,0.547501333,0.544698333,0.539781,0.533691,0.527251667,0.522276333,0.518641,0.516232,0.515002,0.514208,0.514044667,0.513443,0.513425,0.512935333,0.513001,0.513548,0.513884,0.514026333,0.514626667,0.515710333,0.516192333,0.516984667,0.517319,0.517726667,0.518731,0.518680333,0.519392,0.519539667,0.519454667,0.518699667,0.518171667,0.517062333,0.515537,0.513195333,0.510899,0.508184333,0.504787667,0.501697333,0.496943,0.491145,0.484962667,0.478280667,0.471054,0.463844333,0.457132,0.450800667,0.444610333,0.437868667,0.429663333,0.417962667,0.401331,0.378328,0.348228333,0.313729333,0.279567333,0.249622333,0.225677667,0.208568667,0.196314667,0.188193,0.182633333,0.178671,0.176489333,0.175408333,0.175033667,0.175104333,0.175980667,0.178033,0.181408,0.186518667,0.192475,0.199420333,0.206519333,0.214382667,0.222508667,0.230896,0.239192667,0.24738,0.255619,0.263759,0.271920333,0.279713333,0.287316667,0.294656,0.302133333,0.309308,0.315778,0.321739333,0.327275,0.332291667,0.337067667,0.34222,0.346400667,0.350352,0.354617667,0.358483333,0.362229667,0.365428,0.368619667,0.371230667,0.373609,0.375909,0.378509,0.380307333,0.382178,0.383531667,0.384233,0.384982667,0.385511333,0.385731333,0.385428333,0.384573333,0.382215667,0.38155,0.3796,0.378277,0.376286333,0.374664333,0.372396,0.370340667,0.367296,0.363857667,0.360950333,0.357062667,0.353035333,0.348816,0.344124333,0.339565,0.335743333,0.332042,0.329465667,0.326641,0.325457333,0.324272,0.323948667,0.323861667,0.324615333,0.324361333,0.324162667,0.323331,0.322325,0.320636333,0.317421667,0.312960667,0.305963333,0.296559667,0.282715667,0.264861333,0.244678667,0.219022667,0.189588,0.159264333,0.130641667,0.106651,0.088304,0.076997333,0.070407333,0.065902667,0.063480667,0.062395667,0.061305,0.061549333,0.062352333,0.063273,0.064740667,0.066579667,0.068422667,0.071151333,0.073596667,0.076732,0.079804,0.082903333,0.086971,0.090582667,0.094755333,0.098712667,0.10368,0.108328333,0.112891667,0.117220333,0.122252667,0.127132667,0.131806,0.136983,0.140846667,0.145927667,0.150455333,0.155796667,0.161287667,0.165838333,0.171616667,0.177360333,0.182074,0.187076,0.192438667,0.197202667,0.202960667,0.207767333,0.212403,0.217084667,0.221649,0.225468333,0.228585,0.231964333,0.233614,0.236854667,0.239223667,0.240529,0.241156333,0.242351667,0.243443,0.244371,0.245946,0.247051333,0.248240667,0.249301667,0.250174667,0.250445667,0.25027,0.250035,0.249628667,0.248284667,0.246602667,0.244018,0.241116333,0.238001333,0.234501333,0.23067,0.226438333,0.222103333,0.218331667,0.214429667,0.210399667,0.206883667,0.203055333,0.199282,0.195394667,0.191031333,0.187565333,0.184183667,0.181126667,0.177305667,0.172834333,0.168944667,0.164439333,0.160255667,0.156938333,0.15304,0.149042333,0.145193667,0.14073,0.136652333,0.13366,0.1293,0.125385333,0.121882333,0.117917667,0.114393333,0.110705667,0.106491667,0.101970667,0.098801,0.096180667,0.093797333,0.090732,0.088111,0.084787667,0.081601,0.078370667,0.075637,0.074025333,0.073307667,0.071956,0.069412,0.066372333,0.067664
0.512884667,0.513643667,0.514438,0.515158667,0.516186,0.517273667,0.518054333,0.519105333,0.51965,0.520767,0.520887,0.521205667,0.521372667,0.522027,0.521984667,0.521535,0.521793667,0.521252333,0.520768333,0.520013,0.519686333,0.519569667,0.518742667,0.518163667,0.517222,0.515910667,0.513330667,0.509590333,0.505186,0.498843667,0.494063667,0.490351,0.488795,0.488116333,0.487634667,0.486936667,0.486211333,0.486221333,0.485557667,0.485693,0.485707,0.486068333,0.486611667,0.487339333,0.488062,0.488703,0.489429333,0.48957,0.489982,0.49063,0.490962,0.491494667,0.491512,0.491287667,0.491096333,0.490797,0.489831,0.48854,0.486752333,0.485029,0.482671333,0.479491,0.476292667,0.472110333,0.467479333,0.462136,0.456227667,0.450016333,0.443705667,0.43788,0.432106667,0.426652,0.420627333,0.413288333,0.402969333,0.388134667,0.367705667,0.339926,0.306847,0.27374,0.244155667,0.219499667,0.201686667,0.188784333,0.179752333,0.173478333,0.169135,0.166046,0.164283,0.163459,0.163179,0.163862333,0.165633333,0.168780333,0.173795667,0.179725,0.186504333,0.193678667,0.201722667,0.2097,0.217893333,0.226304667,0.234484,0.242545333,0.250559667,0.258687,0.266201,0.273881667,0.281406333,0.288335,0.295348,0.301661,0.307318333,0.312749333,0.317933333,0.322503333,0.327447,0.331882,0.335920667,0.339720333,0.343358667,0.346781333,0.349426667,0.352525667,0.355013667,0.357411667,0.35988,0.362013667,0.363888333,0.365212667,0.366813333,0.367496,0.368157333,0.368471333,0.369016333,0.368877667,0.368307333,0.366643667,0.365890667,0.364648333,0.363118,0.361330667,0.358967667,0.356908,0.355420333,0.352968333,0.349946333,0.347215,0.343791,0.340201333,0.335919,0.332010667,0.327531667,0.324166667,0.320602,0.317804,0.315488333,0.314570333,0.313306,0.313341667,0.313284667,0.313886,0.313411,0.313560333,0.313572,0.313115333,0.311377667,0.308524,0.304428333,0.298238667,0.289478333,0.276825333,0.260541667,0.240781,0.215119333,0.184633667,0.153154333,0.121849667,0.095365333,0.074968667,0.061289,0.053999333,0.05005,0.047343,0.046207667,0.045291667,0.045246333,0.045904667,0.046484333,0.048219667,0.049798667,0.051703333,0.054312333,0.056567667,0.059529333,0.063104333,0.066187,0.070791,0.073971,0.078821667,0.083069333,0.088314,0.092609667,0.097855667,0.103158667,0.107924667,0.113566667,0.118307667,0.123627,0.128405333,0.133615667,0.138645667,0.144027,0.149707667,0.155122333,0.160628333,0.16703,0.172033667,0.177938,0.183042667,0.188340333,0.193586667,0.199000667,0.203760667,0.208961667,0.213797333,0.218274667,0.221743333,0.224953,0.22814,0.230278667,0.233383667,0.234531,0.236026,0.237879333,0.239072333,0.240057,0.242207,0.243196667,0.243776667,0.244834,0.245962,0.246449333,0.246164,0.246491667,0.245767667,0.244299333,0.243546,0.241001333,0.238669333,0.234888667,0.231180333,0.227724667,0.223335667,0.219071,0.214859667,0.211055333,0.207485333,0.202951333,0.198566667,0.195098667,0.191555333,0.186778667,0.182848333,0.179686667,0.175868333,0.171758333,0.168120667,0.163624,0.158712667,0.154428667,0.150778,0.147459,0.143424,0.139603667,0.135266667,0.131994,0.127265667,0.122528667,0.118795333,0.115249333,0.111150667,0.107290667,0.103877667,0.100560333,0.096586667,0.093073,0.088907667,0.084537333,0.079979667,0.077812333,0.075264667,0.072767667,0.070054,0.066965,0.065164333,0.062792,0.059411,0.057042,0.055734,0.054623
0.549221667,0.550647,0.552125333,0.553685667,0.554536333,0.555324667,0.556046667,0.556841667,0.557577,0.558678333,0.558921333,0.558850333,0.559058333,0.559441,0.559687,0.559179,0.558983333,0.558612333,0.558015667,0.557489667,0.556835667,0.556119,0.555064,0.554188,0.553161667,0.551466333,0.548862,0.544092333,0.537967333,0.531552333,0.526268667,0.522257667,0.520027,0.518733,0.517816,0.517377667,0.516294333,0.515596,0.514924,0.514994,0.514992667,0.515445333,0.516178667,0.516786,0.517745,0.518634667,0.519248667,0.51963,0.520085667,0.521019,0.521265667,0.521508667,0.521633667,0.521435667,0.520824333,0.520310333,0.519287333,0.517982,0.516325,0.514130667,0.511117333,0.507677,0.504388333,0.499659333,0.494191667,0.488051,0.481483333,0.474334,0.4673,0.46069,0.454145,0.447803,0.441045,0.432616333,0.421095,0.40498,0.382327667,0.352274667,0.317271333,0.282427333,0.251082333,0.225297,0.206718333,0.193204,0.183929,0.177313,0.172636333,0.169744,0.168075333,0.167253333,0.167144,0.167909667,0.169752,0.173145667,0.178104,0.184068,0.190960667,0.198268,0.206127333,0.214372667,0.222728667,0.231076333,0.239499333,0.247687,0.255894667,0.263679,0.271404,0.278997,0.286154667,0.292989333,0.300012333,0.306469333,0.311983333,0.317279667,0.322293667,0.327042,0.332136,0.336713667,0.340878333,0.345107,0.349094,0.352782667,0.356054,0.359684,0.362481,0.365311,0.367851333,0.370569333,0.372692333,0.374314667,0.376117333,0.377131333,0.377756333,0.378330333,0.378575,0.377830333,0.377197333,0.375559667,0.373722333,0.371976667,0.370036667,0.368026667,0.366256,0.364373667,0.362014,0.359231333,0.355765,0.352658333,0.349309,0.345247667,0.340701667,0.336650333,0.332463,0.328608667,0.325261667,0.322384333,0.320686,0.319325333,0.318766,0.318684667,0.319144667,0.319338,0.319492667,0.319575667,0.319179333,0.318381667,0.316891,0.314104,0.310203333,0.303698333,0.294673,0.281819,0.265496667,0.246627667,0.221349,0.189465667,0.157284667,0.126119333,0.099759,0.079209667,0.065942667,0.059199,0.054352667,0.051979333,0.050351333,0.049789667,0.04972,0.050291667,0.051239667,0.052573,0.054282,0.056379333,0.058592667,0.061234667,0.064257,0.067381333,0.070866333,0.074732333,0.078862333,0.082947667,0.087360333,0.092185667,0.097190333,0.101985,0.106842333,0.111482,0.116598667,0.121192,0.125928333,0.130308333,0.134932667,0.139508333,0.144273,0.149108333,0.154360333,0.159064667,0.163884667,0.16951,0.173888667,0.178937667,0.183488667,0.188141,0.193366667,0.197552333,0.202425667,0.206948667,0.211389667,0.214739333,0.218105,0.220906333,0.223789667,0.226372,0.228183667,0.229717333,0.231197,0.233037333,0.234428333,0.236291333,0.238349333,0.239782667,0.240751,0.241860333,0.242604,0.243417,0.243047333,0.242431333,0.241566,0.239773,0.237433333,0.234030333,0.230391667,0.225861,0.221081667,0.215835333,0.211124,0.206579333,0.201908,0.197662333,0.194151,0.190657333,0.186992333,0.182635333,0.178367333,0.175448333,0.172587667,0.169175667,0.165498,0.161989333,0.157978667,0.154567,0.150558667,0.146832667,0.143131667,0.139316333,0.135865,0.132188,0.128261,0.124287,0.120288667,0.116860667,0.113035,0.109512333,0.105525667,0.101835667,0.098495333,0.094559667,0.091207333,0.087609667,0.083956333,0.080861,0.077760667,0.075130333,0.072773,0.070530333,0.067570333,0.064688333,0.062984333,0.061260667,0.060175333,0.060011667,0.059100333
0.497458667,0.498506,0.500357667,0.500723667,0.501474667,0.502002333,0.50302,0.504444333,0.504936667,0.505248667,0.505354,0.505606333,0.506100667,0.506565,0.506749333,0.506322667,0.506375667,0.505591333,0.504906667,0.504785,0.504312667,0.503527333,0.502423333,0.501553667,0.500812333,0.499617,0.497137333,0.492684333,0.486039333,0.479549,0.474590667,0.470779333,0.468826667,0.467281667,0.466415667,0.466002333,0.465154,0.464827667,0.46422,0.464247667,0.464192667,0.464586,0.465375333,0.465963,0.466898333,0.467417333,0.468162667,0.468665,0.469433,0.470240333,0.470429667,0.470772333,0.470751,0.470598,0.470069,0.469526333,0.468500333,0.467292667,0.465716333,0.4633,0.460303,0.456902,0.453536,0.448981,0.443668,0.437750333,0.430994,0.423822,0.41695,0.410244667,0.403906333,0.397919,0.391279333,0.382921333,0.371284333,0.355461333,0.333073333,0.303146333,0.268607333,0.234693667,0.204559333,0.180042667,0.162619,0.150455,0.141835667,0.13596,0.131914333,0.129227667,0.127462333,0.127035667,0.127002667,0.127653667,0.129342333,0.132213333,0.136860667,0.142691333,0.149138667,0.155918667,0.163559333,0.171186333,0.179270333,0.187504333,0.195607667,0.203709333,0.211489667,0.219476667,0.227192,0.234795,0.241808667,0.249066,0.256262333,0.262706,0.268307,0.273917,0.279144333,0.284242667,0.289370333,0.293804667,0.297952,0.302356,0.306254333,0.310078,0.313186667,0.316630667,0.319288667,0.321856333,0.324662333,0.327203,0.32884,0.330791667,0.332294,0.333316333,0.33433,0.334912333,0.335354,0.334865333,0.334138333,0.332409333,0.331026333,0.329743,0.328067333,0.326390333,0.324877333,0.322814,0.320444,0.317977,0.314808333,0.311793333,0.307878333,0.303839333,0.299490667,0.295509667,0.291128667,0.287477667,0.283897,0.281234,0.278790333,0.277618333,0.276742333,0.276786667,0.276991,0.277564,0.277623,0.277805,0.277372667,0.276434333,0.274687333,0.272564333,0.2681,0.261799333,0.252460333,0.24,0.223773,0.204971,0.182331,0.151479,0.121050333,0.094033,0.072216333,0.056709333,0.046191,0.040926667,0.037301333,0.035884333,0.034758,0.034303667,0.034221667,0.034669333,0.035153,0.036359,0.037065,0.038427,0.039883667,0.042059333,0.043961667,0.046259333,0.049063333,0.051672,0.054914333,0.058313667,0.062088667,0.065654333,0.069895,0.074006333,0.078135667,0.082721667,0.086804,0.091167333,0.095306667,0.099644667,0.103769333,0.108795333,0.113318667,0.118084667,0.122335,0.127798,0.132525667,0.137815,0.142852,0.147544333,0.152730333,0.157487667,0.162218333,0.167141667,0.171650333,0.176426667,0.180073333,0.183998,0.186621667,0.189767667,0.192328,0.194448667,0.196909333,0.198128333,0.199216667,0.201589333,0.203414,0.205108667,0.205904333,0.207819333,0.208900333,0.209624333,0.210448333,0.210953667,0.210908,0.210274333,0.208735333,0.207493667,0.204652,0.201446667,0.198586667,0.194292667,0.189784333,0.185261,0.181381333,0.177442667,0.172962,0.169006667,0.165234667,0.161438,0.157795333,0.153439333,0.149592667,0.146779667,0.143253667,0.139723333,0.13672,0.131875667,0.128393333,0.125193667,0.120251,0.116272,0.112761,0.109380333,0.106097,0.102270333,0.099043667,0.096827667,0.093726333,0.088793333,0.084553,0.081027667,0.078705333,0.074686667,0.072934,0.069933,0.067356667,0.063365667,0.060141667,0.055612,0.051751333,0.050299,0.048761667,0.046571667,0.044813667,0.043564,0.043200667,0.040906333,0.038026667,0.03556,0.036839667
0.535495667,0.536368333,0.537458333,0.538254,0.538844667,0.539637667,0.540164333,0.540942667,0.541328333,0.541875,0.542152667,0.542125667,0.542577667,0.542726333,0.542782667,0.542606667,0.542477667,0.541858,0.541432667,0.540647333,0.540043,0.539795,0.538943333,0.537838,0.536929667,0.535504333,0.53315,0.528938333,0.523472667,0.51761,0.513387333,0.510269,0.508397333,0.507418667,0.506836667,0.506665,0.505942,0.505835333,0.505555,0.505317,0.505479333,0.505996333,0.506863,0.507380333,0.508179333,0.508639667,0.509294667,0.509561,0.509842333,0.510510667,0.510573667,0.510914,0.511193333,0.510803,0.510389,0.509809667,0.508834,0.507597,0.505752667,0.503699333,0.50123,0.498414667,0.495290667,0.491042333,0.486133667,0.480701333,0.474680667,0.468227667,0.462005667,0.455935333,0.450100333,0.444307333,0.438066667,0.430218,0.419145667,0.403460667,0.381810333,0.352812667,0.318695667,0.284618667,0.253594667,0.228095667,0.209911333,0.197017,0.188514333,0.182607,0.178806333,0.176771,0.175832667,0.175715333,0.176238,0.177511333,0.179959,0.183971667,0.189731333,0.196672333,0.204458,0.212449333,0.221047667,0.229752667,0.238488333,0.247278667,0.256099333,0.264626,0.272791,0.281089667,0.289072333,0.296593,0.303882333,0.310911,0.317748333,0.324088,0.329904,0.335327333,0.340042,0.344776667,0.349560667,0.353685,0.357715667,0.361676,0.365049,0.368568333,0.371463667,0.374604667,0.377167333,0.379465667,0.381792,0.384134,0.385702667,0.387324,0.388641,0.389379333,0.390069667,0.390605,0.390859333,0.390268667,0.389461,0.387814,0.386533,0.385136667,0.383664333,0.381783667,0.379982,0.377907,0.375694333,0.372884333,0.369609667,0.366371,0.362999,0.358993333,0.354997,0.350695667,0.346382333,0.342541333,0.339093333,0.33624,0.334024333,0.33249,0.331571333,0.331204,0.330958667,0.331366667,0.331091667,0.331037,0.330631667,0.329307667,0.327815667,0.324885333,0.320384333,0.313532667,0.304156667,0.291260333,0.273932333,0.253832333,0.227177667,0.193678667,0.159197333,0.126170333,0.096925333,0.075160333,0.060892,0.052302667,0.047570333,0.045541667,0.044111,0.043453333,0.043552,0.0443,0.045754333,0.047579,0.049715667,0.052094667,0.055166,0.058592333,0.062096333,0.066118667,0.070599667,0.075240667,0.080393667,0.085753667,0.091312,0.097122,0.102660667,0.108775333,0.11494,0.120686333,0.126409667,0.131772,0.137364667,0.143101667,0.148638333,0.154103667,0.160047,0.165721667,0.171715,0.177842667,0.183816667,0.189408333,0.195396,0.200381667,0.205986333,0.212061333,0.216819667,0.222495,0.227514333,0.232217333,0.23658,0.240640667,0.243201,0.246606333,0.249399667,0.251312333,0.253038667,0.253891667,0.255481667,0.256863667,0.258188667,0.259922,0.261152,0.262882667,0.263901667,0.264683,0.265346667,0.265273667,0.265294667,0.264909,0.263084,0.261654333,0.258723,0.256012,0.25225,0.247590667,0.243040333,0.238554,0.233771333,0.229331667,0.225090333,0.220629,0.216770333,0.212771667,0.208727333,0.204251667,0.199863,0.196212,0.192795333,0.188830333,0.184525,0.180644,0.175945333,0.171297,0.166885667,0.162661667,0.158284333,0.153855,0.149293667,0.144954333,0.140764,0.136535667,0.131795667,0.127503,0.123374667,0.118854333,0.114583667,0.110522333,0.106046333,0.101870333,0.097800333,0.093353333,0.089121333,0.085925667,0.081916667,0.077779333,0.074334,0.071553333,0.068853,0.066525333,0.064481667,0.062464333,0.060753,0.059266333,0.057378
0.541558333,0.542466333,0.543546333,0.544355,0.545137667,0.546205667,0.546664,0.547230667,0.547715333,0.548388333,0.548598333,0.548591667,0.549377,0.549503333,0.549443667,0.549173333,0.548941667,0.548429333,0.548044333,0.547804667,0.547060333,0.546595333,0.546046667,0.544964667,0.543987667,0.542484667,0.540386333,0.536467667,0.530988,0.525278333,0.520514333,0.517080333,0.515404333,0.514210333,0.513185333,0.513038333,0.512404333,0.511745,0.511232667,0.511186667,0.511558667,0.511827667,0.512512,0.513593667,0.514509667,0.515427667,0.516093,0.516576667,0.517059667,0.517787,0.518067667,0.518352333,0.518561333,0.518225667,0.517915,0.517279333,0.516241333,0.515190333,0.513605667,0.511777,0.509496,0.506567,0.503588333,0.499641,0.495002667,0.489357,0.483316,0.476698,0.470272,0.464071333,0.457908,0.452007333,0.445648,0.437559,0.426579,0.411507333,0.390224333,0.361611333,0.327353667,0.292454333,0.260234667,0.233120333,0.213659333,0.199617,0.190258,0.183828,0.179797667,0.177682667,0.176766,0.176839667,0.177556333,0.179066667,0.181572,0.185768,0.191542,0.198625,0.206480667,0.214638,0.223390333,0.232193,0.241117667,0.24987,0.258452667,0.266872667,0.27502,0.282789667,0.290422,0.297568333,0.304528,0.311139,0.317606667,0.323451667,0.328606,0.333680333,0.338257,0.34288,0.347428667,0.351542333,0.355706333,0.360027,0.363756,0.367457667,0.370688333,0.374118333,0.377051,0.379735333,0.382455,0.384891,0.386935667,0.388567333,0.390121667,0.391217333,0.391874667,0.392292,0.392424667,0.391545,0.390447667,0.388407333,0.385982667,0.383642,0.381584,0.379697333,0.377989,0.376050333,0.373619,0.371054,0.367739333,0.364491,0.360895,0.356991667,0.352602333,0.348589333,0.344800333,0.341009667,0.337532333,0.334420333,0.332273,0.331501333,0.330866,0.330674,0.331186,0.331454667,0.331456333,0.331419,0.3312,0.330267,0.328853667,0.326167667,0.322594,0.316389,0.307208667,0.294541333,0.277741667,0.257899,0.230960333,0.197408667,0.161512,0.126832667,0.095905333,0.073076333,0.056959,0.048084,0.043432,0.040381333,0.039030667,0.038639,0.038787,0.039869,0.041231667,0.043078,0.045537667,0.048320667,0.051441667,0.054865333,0.058867,0.063197333,0.067959,0.073062333,0.078476,0.084214667,0.090226,0.095999333,0.101933,0.107913,0.113535333,0.119316333,0.124519333,0.129787333,0.134862333,0.139270667,0.143738667,0.148400667,0.153201333,0.157905,0.162623333,0.167650333,0.172479333,0.176994667,0.181681,0.186513,0.191047667,0.195374667,0.200302,0.204796667,0.209334667,0.214034667,0.218055667,0.221682333,0.225184,0.227718,0.230678667,0.232824667,0.234650333,0.236548,0.238306667,0.23996,0.241825333,0.243994,0.24579,0.247984,0.24947,0.250834667,0.251788,0.252343333,0.252673667,0.252258,0.25095,0.248858333,0.246278333,0.242614333,0.238125667,0.232807667,0.226827,0.220645333,0.215165333,0.209467333,0.204068333,0.199920667,0.196461667,0.193468667,0.189915667,0.185461,0.181322333,0.177832333,0.174407333,0.171527667,0.168535667,0.164914,0.161454,0.157716667,0.154103667,0.150514667,0.146875333,0.143014,0.139031,0.134936,0.131017333,0.127838333,0.123726,0.118995,0.114991667,0.110668667,0.106159333,0.101666333,0.097561667,0.093753,0.08985,0.085407333,0.081212333,0.077184667,0.073128333,0.069391,0.066688667,0.063794,0.061059667,0.058470667,0.056686667,0.055349333,0.054236667,0.053336333,0.050730667
0.532060667,0.533255333,0.534434,0.535666,0.536478333,0.537204,0.538223,0.539254333,0.539912,0.540528,0.540863667,0.540998,0.541219,0.541847333,0.542001333,0.541484,0.540983667,0.540382333,0.540363,0.540148,0.539477,0.538491333,0.537857333,0.536780333,0.535914,0.534702,0.532011333,0.526808667,0.520927333,0.514735667,0.509393333,0.505570333,0.504038667,0.502875333,0.501817667,0.501541333,0.500753,0.500852667,0.500229,0.499917333,0.500208667,0.500769333,0.501458333,0.502442,0.503506333,0.504020667,0.504622667,0.505377667,0.505817333,0.506502667,0.506591667,0.507022667,0.507332,0.507335667,0.506719333,0.505818,0.504831333,0.503619,0.501808333,0.499589,0.496947,0.493599,0.490097667,0.485721,0.480409333,0.473994667,0.466991333,0.460012667,0.452669,0.446049,0.440112,0.433928667,0.426984,0.418244667,0.406360333,0.389797667,0.366709333,0.335768333,0.300470667,0.265384,0.234073,0.208810667,0.190955333,0.178210667,0.169607,0.163779667,0.159713667,0.157182667,0.155884,0.155551667,0.155913333,0.157066333,0.159175333,0.162888667,0.168049,0.174171667,0.181417667,0.188856,0.197349,0.205885667,0.214406333,0.222957667,0.231504333,0.239978667,0.247914667,0.256378333,0.264442667,0.272526333,0.280212667,0.287196,0.294234,0.300912667,0.306823,0.312428667,0.317572667,0.322705667,0.328016,0.33231,0.336606333,0.340928333,0.344687,0.348292333,0.351993333,0.355429333,0.357985333,0.361043,0.363497333,0.366060333,0.367952667,0.369495667,0.371154,0.372021,0.373095,0.373705667,0.374165,0.373569,0.372686,0.370726333,0.369768333,0.368345667,0.366963667,0.365587,0.363864667,0.361282667,0.358793667,0.356147333,0.353028333,0.349391333,0.345786667,0.341018667,0.336539,0.332502667,0.328044667,0.323898333,0.320085,0.317164667,0.314606,0.313143,0.312034,0.312005333,0.311850333,0.312639,0.312512333,0.312554,0.312720667,0.311784333,0.309469333,0.306743333,0.302206667,0.295256,0.285687333,0.271713,0.254349667,0.233938333,0.207272667,0.175117333,0.143608333,0.113429667,0.087968,0.070335667,0.057566667,0.049941667,0.047287667,0.044658,0.043578,0.042919333,0.043282333,0.043476667,0.044934667,0.045654,0.047604333,0.049144333,0.051845,0.054384333,0.057104,0.060043333,0.063632,0.067292667,0.071446,0.075629667,0.080119333,0.084869,0.089571,0.095007333,0.099753333,0.105094333,0.109390333,0.114401333,0.119364667,0.124690667,0.1296,0.134347333,0.138660333,0.144692333,0.149573667,0.155257333,0.160939667,0.165925333,0.170473667,0.176086667,0.180482,0.186395333,0.191241,0.196944,0.201618667,0.206137333,0.210316667,0.214023667,0.217389,0.220909333,0.223663667,0.226192333,0.227440333,0.229926333,0.231686667,0.232503333,0.233777333,0.236689667,0.237360333,0.238484,0.240433,0.240560667,0.241446,0.241377667,0.241256333,0.240764,0.238982333,0.237503333,0.235391667,0.232055667,0.228415667,0.224465,0.219108,0.21404,0.210057333,0.205541,0.201509667,0.197140667,0.193542667,0.189969,0.186189333,0.182142333,0.177950333,0.173895333,0.170207667,0.167444,0.163113667,0.158363667,0.154641667,0.150565,0.146256,0.142274,0.137803333,0.13372,0.130157333,0.126530333,0.122755,0.118847667,0.114624,0.110241667,0.106800667,0.103051667,0.098654333,0.095181,0.091135333,0.087914333,0.083662333,0.080512333,0.077036333,0.073444333,0.069456,0.066791,0.065409,0.063641333,0.061144667,0.058998,0.056641,0.054067,0.052712333,0.051204667,0.047083
0.514302333,0.515366,0.516580667,0.517552667,0.518380333,0.519142333,0.520108333,0.521106333,0.521695333,0.522592,0.522775333,0.522908,0.523450667,0.523657,0.523919333,0.523569667,0.523438667,0.523045667,0.522646333,0.522182667,0.521824333,0.521228333,0.520223,0.519323667,0.518545,0.51714,0.514654,0.510384667,0.504831333,0.498912333,0.493884667,0.490084,0.48788,0.48645,0.485377,0.484901,0.483838,0.483303,0.482849333,0.482779,0.482762,0.483158,0.483874667,0.484593333,0.485524,0.486518667,0.487273,0.487688667,0.488137,0.489095667,0.489512,0.489865333,0.489948333,0.489759,0.489502333,0.489128333,0.488209,0.487228333,0.485765667,0.483836,0.480951667,0.477868667,0.474674667,0.470442,0.465494333,0.459879667,0.453628333,0.446866333,0.440226667,0.433821667,0.427742333,0.421704667,0.415399333,0.407557,0.396970333,0.381946333,0.360719667,0.332385667,0.298859667,0.265307,0.234703667,0.209168667,0.190487667,0.176708667,0.166999667,0.159994667,0.155044333,0.151877333,0.149845333,0.148968,0.148774333,0.149369333,0.150997667,0.154169,0.158864,0.164662333,0.171280667,0.178319667,0.185827667,0.193771,0.20188,0.209896333,0.217853,0.225726333,0.233392667,0.240818667,0.248271333,0.255495,0.262251333,0.268732667,0.275482333,0.281511,0.286842667,0.291907333,0.296618,0.301300333,0.306111333,0.310498667,0.314564667,0.318933667,0.322712667,0.326491333,0.330006667,0.333633,0.336655333,0.339382333,0.342104,0.344634,0.34703,0.348924,0.35053,0.351631667,0.352483333,0.353063,0.353319,0.352941,0.352002333,0.350066333,0.348239,0.346317,0.344512,0.342735,0.341053667,0.339485667,0.337679,0.334853,0.331522,0.328563,0.324979333,0.321173333,0.317153,0.313479333,0.309274,0.30564,0.302428333,0.299711667,0.298379667,0.29724,0.296664667,0.296909,0.297827333,0.298385333,0.298564667,0.298980333,0.298922,0.298303333,0.297161333,0.295052,0.291461667,0.285524667,0.277054,0.264650333,0.248258667,0.229289,0.204001667,0.173318,0.141732333,0.11114,0.084540667,0.063897,0.050127667,0.042640667,0.038339333,0.036014333,0.034334,0.033985333,0.033903333,0.034242667,0.034978667,0.036381,0.037663667,0.039776667,0.041906333,0.044477667,0.0472,0.050299333,0.053786667,0.057530333,0.061656667,0.065914,0.070316333,0.074841333,0.079561333,0.084384667,0.088992,0.093545667,0.098233667,0.102681667,0.107003667,0.111164667,0.115252,0.119662,0.124008667,0.12852,0.132877667,0.137429667,0.142590667,0.146641667,0.151126333,0.155316667,0.160012667,0.164443667,0.168785667,0.172978667,0.177643333,0.181731333,0.186249333,0.189870333,0.193141333,0.196176667,0.198949333,0.201613,0.203545667,0.205696333,0.207309667,0.209122,0.210941,0.213443333,0.215266333,0.217175,0.218523667,0.220164667,0.221447667,0.222114333,0.222202667,0.221657333,0.220915,0.219320667,0.216722333,0.213357333,0.209365667,0.204496,0.199447667,0.194213667,0.189217,0.184255,0.179081,0.17509,0.171862333,0.168972,0.165619,0.161479667,0.157307333,0.154252667,0.151666,0.148720667,0.145611667,0.142136333,0.138266333,0.134949333,0.131929,0.128583,0.124875333,0.121669,0.117905333,0.114307333,0.111146,0.107994,0.104403,0.100236,0.096642333,0.092587333,0.089156333,0.085478667,0.081804667,0.077701667,0.074193333,0.070793,0.068036667,0.064361,0.061172667,0.057990667,0.055969,0.053638333,0.051687,0.049481,0.047015333,0.045608667,0.045961333,0.044848333,0.042362
0.500169667,0.501300333,0.502611667,0.503881333,0.503939,0.504302667,0.505255,0.506751,0.506859,0.507195667,0.507639,0.507673667,0.508114667,0.508146333,0.508597333,0.508079667,0.507748,0.507482,0.507148,0.506783667,0.505504333,0.505121,0.504763333,0.503932333,0.503237333,0.501715333,0.499047667,0.495549333,0.489968333,0.484224667,0.479810667,0.476453333,0.474517,0.473181667,0.472104667,0.471745667,0.471087333,0.470850333,0.470024,0.469839667,0.469658,0.470136667,0.470797,0.471243,0.472008667,0.472657667,0.472997333,0.473324333,0.47357,0.474342333,0.474686333,0.474826,0.475064667,0.475068333,0.474493333,0.473998667,0.473089333,0.472104333,0.47057,0.468558667,0.465770333,0.462557,0.459906667,0.455779333,0.450592667,0.445214333,0.439184333,0.432905667,0.426689333,0.420637333,0.414874,0.409572,0.403697,0.396405,0.385788333,0.371244,0.350756333,0.322634667,0.289538667,0.256400333,0.226266667,0.201443667,0.183489,0.170578333,0.161444667,0.155042667,0.150043333,0.146983333,0.145189667,0.144131,0.144005333,0.144509333,0.146111333,0.149081,0.153795333,0.159398667,0.165997,0.172971,0.180693333,0.188639667,0.196829333,0.205026,0.213347667,0.221518,0.229605,0.237626,0.245388667,0.252992,0.260349667,0.267608333,0.274680667,0.281088,0.286923667,0.292315,0.297171667,0.302188667,0.307006333,0.311083667,0.315439,0.319783333,0.323051333,0.326679667,0.329345333,0.332737,0.335255,0.337832,0.33977,0.342144333,0.344247333,0.345488667,0.346883333,0.347604333,0.348381667,0.349227333,0.349619333,0.34895,0.348717667,0.347650667,0.346558667,0.345139,0.343683667,0.341963333,0.340340333,0.338240333,0.336222,0.333807667,0.330941333,0.328366333,0.325019667,0.320615667,0.316779,0.313027333,0.308655333,0.305237667,0.301411333,0.298467667,0.296588333,0.295913667,0.294545667,0.294389667,0.294646667,0.295162,0.294899667,0.294985667,0.294864667,0.293794,0.292344667,0.289704667,0.285827333,0.27973,0.270830667,0.258693,0.242330333,0.223309,0.199205667,0.169757,0.138413333,0.108370333,0.082139,0.063163667,0.050178,0.042781667,0.039943333,0.036137333,0.035325,0.034689,0.034639667,0.034846667,0.035891667,0.036788667,0.038351667,0.039848333,0.042337333,0.044301667,0.047086333,0.049754333,0.053083333,0.056761333,0.060277667,0.064523667,0.068572333,0.073594667,0.078067,0.082895667,0.087789667,0.092222333,0.097711333,0.102315667,0.107860667,0.112565,0.118122,0.123115,0.128176333,0.133315,0.139622333,0.145227,0.150711333,0.156484,0.162151333,0.167667,0.172952667,0.178667333,0.183377,0.188773,0.194164333,0.198778333,0.203197333,0.207634,0.211507667,0.2144,0.217001667,0.219067333,0.220714,0.222171333,0.225157333,0.226180667,0.227359667,0.229125333,0.230003,0.232371333,0.232941333,0.233979667,0.233687667,0.234535333,0.234180667,0.233620667,0.233076,0.231210333,0.228488333,0.225744333,0.223310333,0.219293333,0.21481,0.211022,0.206596333,0.202722333,0.198828333,0.194764,0.190329667,0.186349667,0.182251667,0.177649667,0.173321333,0.169830333,0.166249667,0.162517667,0.158382667,0.154249667,0.149698667,0.145056333,0.141354333,0.137121667,0.132965,0.129242667,0.124988667,0.120543667,0.116571,0.112912,0.108969667,0.105219,0.100389333,0.097674,0.094533667,0.090851,0.086950333,0.082287667,0.078529,0.074772,0.071225,0.068666,0.065558667,0.062169333,0.059615,0.057788333,0.054181667,0.052142333,0.050792667,0.049337333,0.047578333,0.048393667,0.047895333
0.522993667,0.524000333,0.525504333,0.526010667,0.527062,0.528082333,0.528777,0.529315333,0.530221,0.530789667,0.530925,0.530964,0.531404,0.531833667,0.531915667,0.531333333,0.531130667,0.5308,0.530244667,0.529700667,0.528731667,0.528115667,0.52752,0.526574667,0.52528,0.523530333,0.520906667,0.516377667,0.510222667,0.503809667,0.498670667,0.494700333,0.492514333,0.491488333,0.490882,0.490752,0.489744333,0.489205333,0.488472333,0.488090667,0.488533667,0.489055333,0.48964,0.490279,0.491086333,0.491794667,0.492425667,0.492952333,0.493224,0.493862333,0.494597667,0.494593333,0.494675,0.494535,0.493826667,0.493217333,0.492154,0.490723,0.489049,0.486747,0.484082,0.480594,0.47691,0.472413333,0.467067,0.46089,0.454016333,0.447189,0.440412667,0.433955667,0.427081333,0.421213,0.414615333,0.406337333,0.394819667,0.378407,0.355756,0.325725,0.29079,0.255792,0.224875,0.199753333,0.182060667,0.169541667,0.160962333,0.155174667,0.151008,0.148856333,0.147286333,0.146895333,0.147088333,0.147891333,0.149736333,0.153210333,0.158201,0.164342333,0.171234333,0.178559667,0.186407,0.194444667,0.203043,0.211462667,0.219927333,0.228347,0.236588,0.244799,0.252649333,0.260307333,0.267659667,0.275260667,0.282569667,0.288954,0.295305333,0.300626333,0.305615333,0.310606667,0.315629333,0.320399333,0.324622,0.328791667,0.332622,0.335945333,0.33884,0.342499333,0.344935,0.347654,0.349891,0.352192,0.354390667,0.355982,0.357199667,0.358317667,0.358932333,0.359020667,0.359563667,0.358584,0.358067333,0.356235333,0.354585667,0.352926,0.351291667,0.349238667,0.347282667,0.344875333,0.342535333,0.340029,0.337031667,0.333977,0.330679333,0.326703333,0.322424667,0.318157667,0.314104333,0.31039,0.306356667,0.304182,0.301452333,0.300307,0.299276,0.299273667,0.299276,0.299374333,0.299448333,0.299322,0.299155333,0.298516333,0.296755,0.293776667,0.289914,0.283082333,0.273368667,0.260641333,0.244008667,0.223982,0.1989,0.167547667,0.137113333,0.107874,0.083646333,0.066151333,0.054955,0.049384,0.046134667,0.043579667,0.042368667,0.042213333,0.042125667,0.043002333,0.043361,0.044475333,0.045632333,0.047391,0.049023,0.051204333,0.05372,0.056285667,0.059373333,0.062723,0.066034667,0.069278333,0.073948,0.078193333,0.082517333,0.087082333,0.091987333,0.096082,0.100921667,0.105916667,0.110191333,0.115014333,0.119637,0.124078,0.129206333,0.134751667,0.140362333,0.145227667,0.150487667,0.155809333,0.161835333,0.166837,0.171731667,0.177091667,0.18213,0.187065,0.191827667,0.196366,0.200549,0.203829,0.207014,0.209418333,0.21142,0.213665667,0.214992,0.216490667,0.219243,0.219622,0.221280667,0.222548667,0.223767,0.225585,0.226553333,0.227241667,0.228192,0.228034333,0.227849667,0.227643333,0.226392667,0.224781333,0.222212,0.219708333,0.21611,0.212078667,0.207266333,0.203168333,0.198701333,0.194662667,0.190934,0.186625333,0.182986,0.178513,0.174654,0.170468,0.16631,0.163350667,0.159776667,0.156517333,0.152415667,0.148297667,0.144982333,0.140133333,0.136145,0.132874667,0.129191,0.125570333,0.122388333,0.118955333,0.114302333,0.110893333,0.107068,0.103365,0.10024,0.096517333,0.092869,0.088952667,0.085349667,0.080935667,0.077673,0.074699667,0.072948667,0.069611333,0.068121,0.064421,0.061716333,0.060644667,0.060154333,0.057168,0.054385333,0.051904,0.050846333,0.051591,0.050181667
0.558055333,0.559374333,0.561159333,0.562111,0.563435,0.564704333,0.565397333,0.566893667,0.567734667,0.569101,0.568819667,0.568782,0.569668,0.569605,0.569987333,0.569331,0.569148,0.568836667,0.568542,0.567885,0.566801667,0.565804667,0.565514,0.56449,0.562884,0.560669,0.557594667,0.552090667,0.544978333,0.536354333,0.529526,0.525173,0.523111333,0.520984,0.519841,0.519364,0.518170333,0.517518667,0.516301,0.516000333,0.516231667,0.516928667,0.518088,0.518943667,0.520028333,0.521121667,0.521990667,0.522581,0.523200333,0.524587333,0.525117,0.525775333,0.525603,0.525851667,0.525235333,0.524393667,0.523440333,0.522009,0.520087333,0.517200333,0.513930333,0.509992333,0.506031333,0.500672333,0.494117667,0.48684,0.479063667,0.470686333,0.462315333,0.45458,0.447252,0.440200667,0.432496667,0.423069333,0.409952667,0.392285333,0.367862,0.335379667,0.298394667,0.262228333,0.230029,0.203982667,0.185538667,0.172650333,0.163652333,0.157398333,0.152957667,0.150455333,0.148844,0.148170667,0.148049,0.148747667,0.150493333,0.153556333,0.158388,0.163935333,0.170455333,0.177444667,0.185046667,0.193018333,0.201369667,0.209485667,0.21751,0.225702333,0.233844,0.241755333,0.249494,0.257121667,0.264387667,0.27149,0.278666333,0.285199667,0.291216333,0.296659667,0.301864333,0.306572,0.311885333,0.316962,0.321571667,0.326301333,0.330685,0.334774333,0.338408333,0.342039667,0.345389,0.348807667,0.351659333,0.354944333,0.357347333,0.358966667,0.361302667,0.362842667,0.363521333,0.364398667,0.364727,0.364296667,0.363451667,0.361097667,0.358938333,0.356889,0.354913333,0.352744333,0.351372,0.349355333,0.346827,0.343774,0.340322333,0.336505333,0.332415333,0.328024667,0.323225667,0.318888333,0.314530333,0.310691667,0.306310333,0.303396,0.301491333,0.300409333,0.299167667,0.299170667,0.299510333,0.300422,0.300333667,0.300393333,0.300012,0.299510667,0.298465,0.295681,0.291390667,0.284992333,0.275662667,0.262480333,0.246105333,0.22671,0.201200667,0.169318667,0.139326667,0.111589333,0.089379,0.072482667,0.061723667,0.055415333,0.052109667,0.050221667,0.048796667,0.048457667,0.048406,0.049009667,0.049391667,0.050928,0.052164,0.053834667,0.055605667,0.057856,0.059752667,0.062507333,0.065394,0.068225,0.071679667,0.075177,0.078498,0.083002667,0.086593,0.090168,0.094386,0.098212333,0.102526333,0.106269,0.109908667,0.113730667,0.117307,0.121109333,0.125135,0.129396,0.133159667,0.13748,0.141732333,0.144957667,0.149732333,0.153592,0.158201333,0.162175333,0.166145333,0.170350667,0.174403667,0.177763667,0.182189,0.185327667,0.188109,0.191300333,0.194047667,0.195954667,0.197822333,0.199157,0.201386,0.202707,0.204121667,0.206287333,0.208193,0.209786667,0.210934333,0.211311333,0.212527667,0.212387333,0.213011,0.212310667,0.211068667,0.210365,0.207959667,0.204611333,0.201040333,0.196806,0.191979667,0.186978,0.182523,0.178093667,0.173515,0.169598,0.166700333,0.164232667,0.161135333,0.156916333,0.153256,0.149909,0.146317333,0.143590667,0.14123,0.138318667,0.134457,0.131468,0.128587667,0.124913,0.121919,0.119157333,0.115623333,0.112049667,0.109781,0.106714667,0.103016333,0.099961,0.096915667,0.093118,0.089366,0.087834667,0.084560333,0.081077333,0.078289667,0.075918667,0.072937667,0.070127333,0.068466667,0.065918,0.063409333,0.060672333,0.058399,0.057388667,0.056323333,0.056717,0.055158,0.054241667,0.052121333
0.503766333,0.505138667,0.506444,0.507994,0.508903333,0.509534667,0.51124,0.512265,0.512457,0.513498333,0.514090333,0.514073667,0.514776333,0.515344,0.515736333,0.515314667,0.514673,0.514407333,0.514251,0.514065,0.513204667,0.512852333,0.511912,0.510708,0.509938333,0.507985,0.505415,0.501141667,0.494478,0.487443667,0.481438,0.476994333,0.474198667,0.473066667,0.471594667,0.470626333,0.469852,0.469294,0.468363,0.467861,0.467885333,0.468417333,0.469467667,0.470279667,0.470952333,0.472152667,0.472977667,0.473669333,0.474055333,0.475192667,0.475848333,0.476238,0.476541667,0.476537,0.475823,0.475550667,0.474502667,0.473235333,0.471389,0.469023333,0.466263,0.462711,0.459108333,0.454356667,0.448633667,0.442141667,0.434878,0.427460333,0.420059,0.413254667,0.40658,0.400332,0.393580333,0.385227667,0.374166667,0.358388667,0.336569,0.307253667,0.272423,0.23804,0.206942,0.181249667,0.163,0.149364,0.139861,0.133249333,0.12805,0.124619,0.122377,0.121142333,0.120680667,0.121055333,0.122324,0.124884667,0.128961333,0.134144667,0.140213,0.146751,0.153750667,0.160832,0.168706667,0.176477667,0.184295,0.191982,0.199800333,0.207401,0.215025333,0.222428333,0.229239,0.236207333,0.243272,0.249721333,0.255233333,0.260757667,0.266318,0.271091333,0.275674333,0.280328333,0.284777667,0.289394333,0.293379667,0.297248333,0.301114,0.304850667,0.307727,0.310858333,0.313492,0.316223,0.318628667,0.320612667,0.322474333,0.323783,0.324577667,0.325844,0.326266333,0.326108667,0.325451333,0.323313667,0.321952667,0.320275667,0.318828333,0.317004333,0.315478,0.313503,0.311483667,0.308795333,0.30567,0.302679667,0.299076667,0.295269,0.290880333,0.286659667,0.282298,0.278446,0.275085333,0.271980667,0.269779667,0.269143,0.268523,0.268731667,0.268963,0.269751,0.269882667,0.270677667,0.270537333,0.270246,0.268897333,0.266445,0.263232,0.257708667,0.248950333,0.236583667,0.221067,0.202011333,0.177838,0.149964,0.121212333,0.092424,0.069795333,0.052238333,0.041043,0.034229333,0.031448667,0.029171,0.028007667,0.027521333,0.027239667,0.027758333,0.028285,0.029288333,0.029787,0.031752667,0.032913,0.035322667,0.03687,0.039457,0.042006667,0.044712333,0.048132667,0.051232333,0.054634333,0.058644667,0.062286667,0.066310667,0.070283,0.074552,0.078538,0.082593,0.086656667,0.090901667,0.094752667,0.099111333,0.103447667,0.106965667,0.112177333,0.11674,0.121380667,0.125531,0.130145,0.134601667,0.139201333,0.14336,0.148296667,0.153050333,0.1576,0.1619,0.165741,0.169512333,0.173080667,0.176286,0.178615333,0.180850667,0.183841333,0.186370333,0.188173,0.190218333,0.191090333,0.193620333,0.195601667,0.198068,0.199020333,0.200471667,0.201581,0.201837667,0.201608,0.201244,0.200724667,0.198293667,0.196998667,0.193127,0.189130667,0.184996667,0.180559333,0.176178,0.171500333,0.166655,0.162150333,0.157903,0.155062333,0.152351667,0.148344667,0.144201,0.140111333,0.136839667,0.133929667,0.130726667,0.127858667,0.124296,0.120202,0.116981333,0.113532667,0.109811667,0.106489333,0.103133,0.10033,0.09686,0.093193667,0.089301333,0.086977,0.084449333,0.079809333,0.075894,0.073152667,0.069922667,0.067007333,0.066290333,0.062308333,0.058388667,0.055930667,0.052917,0.049848333,0.047399667,0.047097,0.044405667,0.0427,0.041437,0.039289333,0.035605667,0.033382,0.036025,0.036926667
