1000,1005,1010,1015,1020,1025,1030,1035,1040,1045,1050,1055,1060,1065,1070,1075,1080,1085,1090,1095,1100,1105,1110,1115,1120,1125,1130,1135,1140,1145,1150,1155,1160,1165,1170,1175,1180,1185,1190,1195,1200,1205,1210,1215,1220,1225,1230,1235,1240,1245,1250,1255,1260,1265,1270,1275,1280,1285,1290,1295,1300,1305,1310,1315,1320,1325,1330,1335,1340,1345,1350,1355,1360,1365,1370,1375,1380,1385,1390,1395,1400,1405,1410,1415,1420,1425,1430,1435,1440,1445,1450,1455,1460,1465,1470,1475,1480,1485,1490,1495,1500,1505,1510,1515,1520,1525,1530,1535,1540,1545,1550,1555,1560,1565,1570,1575,1580,1585,1590,1595,1600,1605,1610,1615,1620,1625,1630,1635,1640,1645,1650,1655,1660,1665,1670,1675,1680,1685,1690,1695,1700,1705,1710,1715,1720,1725,1730,1735,1740,1745,1750,1755,1760,1765,1770,1775,1780,1785,1790,1795,1800,1805,1810,1815,1820,1825,1830,1835,1840,1845,1850,1855,1860,1865,1870,1875,1880,1885,1890,1895,1900,1905,1910,1915,1920,1925,1930,1935,1940,1945,1950,1955,1960,1965,1970,1975,1980,1985,1990,1995,2000,2005,2010,2015,2020,2025,2030,2035,2040,2045,2050,2055,2060,2065,2070,2075,2080,2085,2090,2095,2100,2105,2110,2115,2120,2125,2130,2135,2140,2145,2150,2155,2160,2165,2170,2175,2180,2185,2190,2195,2200,2205,2210,2215,2220,2225,2230,2235,2240,2245,2250,2255,2260,2265,2270,2275,2280,2285,2290,2295,2300,2305,2310,2315,2320,2325,2330,2335,2340,2345,2350,2355,2360,2365,2370,2375,2380,2385,2390,2395,2400,2405,2410,2415,2420,2425,2430,2435,2440,2445,2450,2455,2460,2465,2470,2475,2480,2485,2490,2495,2500
0.421274333,0.422123,0.423021,0.42398,0.424376,0.425383333,0.426216,0.426558333,0.427342,0.428345667,0.428145667,0.428289667,0.428799,0.429127667,0.42876,0.428507667,0.428410333,0.427641,0.427521,0.427272333,0.426799333,0.426484333,0.425740667,0.424937667,0.423787667,0.422186667,0.420246667,0.416566667,0.41144,0.405816,0.401241667,0.398061667,0.396435667,0.395435333,0.394674,0.394133667,0.393325,0.392777333,0.392033333,0.392147667,0.392244667,0.392541,0.393432,0.394235667,0.394974333,0.395612,0.396103,0.396398667,0.396876,0.397564333,0.397762,0.398296667,0.398313667,0.397905667,0.397862,0.397726,0.396834333,0.395717,0.394363667,0.392413333,0.389806,0.387136333,0.384305667,0.380721333,0.376432,0.371097667,0.365897333,0.360225333,0.354442,0.349106333,0.343606333,0.338648667,0.333374333,0.326997,0.317763,0.305062333,0.287529667,0.264104667,0.236978667,0.210235667,0.186494,0.167143,0.153133667,0.142893333,0.135917333,0.131090333,0.127715667,0.125613333,0.124224,0.123602,0.123580667,0.124152333,0.125468667,0.127818667,0.131396667,0.135768,0.140816333,0.146227333,0.152123333,0.158001667,0.164260667,0.170515,0.176738,0.182933333,0.188833333,0.194698333,0.200491667,0.206366333,0.211887667,0.217,0.222257667,0.227181667,0.231448667,0.235510333,0.239347667,0.243090667,0.246984667,0.250591333,0.253981,0.25718,0.260383333,0.263342,0.265611333,0.268666333,0.270825,0.273115333,0.275429667,0.277390667,0.279417333,0.280899,0.282107333,0.282731333,0.283409333,0.283912333,0.284081667,0.283661667,0.282836333,0.28151,0.280132333,0.278547,0.276805333,0.275465667,0.274291667,0.272359333,0.270549333,0.268868333,0.266259,0.263725333,0.260611333,0.257441667,0.254295,0.251338333,0.248408,0.245258667,0.242066,0.240069667,0.238759333,0.237883667,0.237523333,0.237601667,0.238036,0.238286,0.238388,0.238682,0.238389667,0.238023333,0.236700667,0.234739333,0.232034667,0.227268,0.220116667,0.210262333,0.197933667,0.183206,0.163979,0.141249,0.117651,0.095371667,0.076719333,0.063513667,0.054024667,0.048519333,0.045836,0.044365333,0.043386,0.042696,0.043005,0.042906333,0.043439,0.044397333,0.045378,0.046748667,0.048472333,0.049723333,0.052073667,0.053909333,0.056510667,0.058588333,0.061310667,0.064435,0.067464,0.070349333,0.074019,0.077404333,0.080774333,0.083744667,0.087393667,0.090054,0.093349667,0.096702,0.099774,0.102985667,0.106001667,0.109501333,0.112875,0.116335,0.120026333,0.123060667,0.126755,0.129833,0.133321333,0.136818333,0.140106667,0.143572667,0.146846,0.150061333,0.153009333,0.155841333,0.157775667,0.159894333,0.161584,0.1637,0.164984667,0.165891,0.167498333,0.168731,0.170632333,0.171387,0.173098,0.174197333,0.175767,0.175803333,0.176677667,0.177236667,0.177053667,0.176771333,0.176432,0.175256333,0.173230667,0.170601333,0.168006333,0.164192333,0.160856,0.156976667,0.152891333,0.149544667,0.146244333,0.143545333,0.141065333,0.138642333,0.136098667,0.133549,0.130053667,0.127293667,0.125615333,0.123511,0.121098,0.118571,0.115981333,0.113277333,0.110852333,0.108103,0.105711,0.103261,0.099951667,0.097552667,0.095603333,0.09348,0.090170667,0.087926333,0.085490667,0.082062,0.079231667,0.077649333,0.075066333,0.071217667,0.068676,0.066392,0.064390667,0.062845667,0.060218,0.058207,0.057013667,0.055709,0.053913,0.051767,0.050757667,0.049296,0.047854667,0.047261667,0.048190333
0.521801667,0.522623667,0.523931333,0.524229,0.525156667,0.526179333,0.526808333,0.527681,0.528645667,0.529568333,0.529366333,0.529196333,0.529775,0.530057667,0.530155,0.529664333,0.529632667,0.528835,0.528344333,0.527705667,0.527245,0.526583333,0.526110667,0.525018333,0.523789667,0.522571667,0.520005667,0.515395667,0.509565667,0.503541333,0.498953667,0.495278333,0.493086667,0.492232333,0.491219333,0.490588,0.489611,0.489354333,0.488837333,0.488523667,0.488366,0.488965667,0.489536667,0.489681,0.490562,0.491441333,0.492079,0.4921,0.492572333,0.493455667,0.493701333,0.493995,0.494201667,0.494037,0.493539667,0.492935667,0.491927667,0.490667,0.489146667,0.487055333,0.484182667,0.480679333,0.477497667,0.473296333,0.468109,0.462207,0.455597667,0.449130333,0.442466,0.436215,0.430282,0.424826667,0.418995333,0.411273667,0.400073667,0.384529333,0.362924333,0.333704,0.29934,0.265409,0.234979,0.209757,0.191667,0.178523667,0.169503,0.162766667,0.158086333,0.155012667,0.153126667,0.152081333,0.151582,0.152327333,0.154078333,0.156942667,0.161585,0.167543,0.174323,0.1814,0.189236,0.197225667,0.205505333,0.213879667,0.222379333,0.230589667,0.238798333,0.247046667,0.255041,0.262949667,0.270185667,0.277306333,0.284358,0.291255,0.297254667,0.302857667,0.308155667,0.313168333,0.317959333,0.322409667,0.326890667,0.330847667,0.334682,0.338436333,0.341156,0.344517333,0.347178,0.349777,0.352148333,0.354558,0.356216667,0.357827333,0.358990333,0.360119,0.360890667,0.361333,0.361595,0.361528,0.360758333,0.359569667,0.358735,0.357689,0.355858,0.354184,0.352254333,0.349903,0.348016,0.345671333,0.342607333,0.339426,0.335857667,0.332166,0.328222,0.323672667,0.319420333,0.315655,0.312208,0.309166,0.306902667,0.306245667,0.305121,0.305194667,0.305454333,0.306007,0.305282,0.305414,0.305020333,0.304292667,0.302733333,0.299767333,0.295741333,0.289019667,0.280344667,0.268093667,0.252000333,0.233116667,0.208272,0.177641333,0.145129667,0.114074333,0.088641333,0.069892,0.056582,0.049167667,0.044982667,0.04273,0.041332333,0.040394,0.040510333,0.040797667,0.041805667,0.042889333,0.044629,0.046077,0.049083,0.050909333,0.053754667,0.056664,0.060169,0.063697667,0.067436333,0.071667,0.075790667,0.080240667,0.085156333,0.090023,0.094355667,0.099888333,0.104520667,0.109990667,0.114852,0.119647333,0.124686,0.129677333,0.135111,0.140855333,0.146488333,0.151905,0.157547,0.162493,0.168647333,0.174242,0.179467333,0.185106,0.190111667,0.195315,0.200476333,0.205682333,0.210089333,0.213758333,0.217178667,0.220656333,0.223705333,0.225959333,0.227486,0.228789333,0.231262,0.233109667,0.233888667,0.23554,0.237017667,0.237847333,0.238612333,0.239872,0.240141667,0.23977,0.239809333,0.238884667,0.238012667,0.236887,0.234556333,0.231316333,0.227963,0.22484,0.220729,0.216295333,0.212065333,0.208244,0.204024667,0.199755333,0.195756667,0.191566667,0.187377667,0.183503,0.179307667,0.174774333,0.171739333,0.168589,0.163903333,0.159963,0.155768667,0.150678,0.146284,0.142372667,0.138274333,0.133953,0.130236333,0.12725,0.122284667,0.118127,0.114052,0.110017333,0.106003,0.103396333,0.099877667,0.095384667,0.091154,0.089756333,0.085706333,0.081641,0.077847333,0.075001,0.070486667,0.066543,0.063936667,0.061274333,0.059254667,0.056917,0.056228333,0.053645667,0.053503,0.051931,0.052211333
0.554236333,0.555717667,0.557652,0.558955,0.559767333,0.560834667,0.561404667,0.562636333,0.563162667,0.564137667,0.564121,0.564079667,0.564379,0.564083,0.563956667,0.563296,0.563286667,0.562738,0.56247,0.562010333,0.560829667,0.559955,0.558918,0.558483,0.557066333,0.555272667,0.552704667,0.547351,0.541113,0.534321667,0.528989,0.524426667,0.522216333,0.521276667,0.520691,0.520080333,0.519028,0.518484667,0.517767,0.517731667,0.517804667,0.518241333,0.519104333,0.519321,0.519591667,0.520629333,0.52128,0.521667667,0.52233,0.523033,0.523116,0.523499333,0.523507333,0.523214667,0.522965333,0.522384667,0.521190667,0.520018667,0.518106333,0.515426667,0.512585,0.509169,0.505563333,0.500723667,0.495248333,0.489122,0.482262667,0.475150333,0.467968333,0.461418,0.454783333,0.448956333,0.442788333,0.434176667,0.422391,0.40652,0.384854667,0.354963667,0.320682333,0.287128333,0.257685,0.233867667,0.217097,0.205124667,0.196489,0.190735,0.186493333,0.183856667,0.182249333,0.181727,0.181588667,0.181871,0.183225333,0.186285333,0.190750667,0.196454,0.202845333,0.209626,0.217032667,0.224428333,0.232324,0.240162667,0.247968,0.256011333,0.263709333,0.271452667,0.279386667,0.286805333,0.293776333,0.300707333,0.307734,0.314335,0.320112667,0.325530667,0.330436,0.335397,0.340521,0.345379333,0.349302,0.353232667,0.356794,0.360627667,0.363853333,0.367167667,0.369688333,0.37243,0.374584333,0.376755,0.378701667,0.380474667,0.382197667,0.383143333,0.383733333,0.383891667,0.384041,0.383682667,0.383275,0.381749,0.380591,0.378710667,0.377288,0.375418667,0.373551333,0.371707,0.369268,0.366456667,0.363011,0.359893,0.356361,0.352351333,0.347802333,0.343401333,0.339131667,0.335534,0.332011333,0.328814667,0.326302333,0.325450667,0.324306,0.324164333,0.324065,0.324296667,0.323861,0.324059667,0.323274333,0.322041,0.319624333,0.316761667,0.312975667,0.307004667,0.297774667,0.285531333,0.270014667,0.252820333,0.230806,0.202646667,0.171290333,0.142934,0.119148,0.102268667,0.088425667,0.081407667,0.077600333,0.074899667,0.073594667,0.072804,0.072634333,0.073288,0.074425333,0.076048333,0.077733,0.080222333,0.082764333,0.085169333,0.088521333,0.091248,0.094731,0.098262333,0.101872667,0.106201333,0.109967333,0.114205,0.118495667,0.122634,0.126906,0.131638333,0.135794333,0.140827333,0.144766333,0.149235333,0.153777333,0.157577,0.162679333,0.167144333,0.172071667,0.176816,0.181580333,0.186438667,0.191546667,0.196044333,0.201216,0.205696667,0.210344667,0.214607667,0.219612,0.224348667,0.228276667,0.231818333,0.234136333,0.236727333,0.238337333,0.240630667,0.241659667,0.242983667,0.244142,0.244638667,0.245985333,0.247072,0.248357667,0.249541667,0.249986333,0.250313,0.250570667,0.250645,0.250397,0.249637667,0.248538,0.246584667,0.244345,0.241962,0.239111667,0.235632333,0.231397667,0.227208667,0.223138,0.219626667,0.215866333,0.212204333,0.208979667,0.20507,0.200513333,0.196957667,0.193731,0.189849,0.186177,0.182967333,0.17947,0.175553,0.170928,0.167254333,0.163803667,0.160063667,0.156169,0.152356667,0.14771,0.143989,0.141168667,0.137773333,0.133652333,0.129121333,0.126327333,0.124369333,0.121571,0.117135667,0.113160333,0.110441667,0.107652667,0.104683667,0.101053667,0.097717333,0.093281333,0.089321333,0.086277667,0.08469,0.083309333,0.080625333,0.078361667,0.077148667,0.074877333,0.074136667,0.074239667
0.523490333,0.524698333,0.526178,0.527266333,0.527947667,0.528682333,0.529819333,0.530601,0.531134333,0.531913,0.532059333,0.532071667,0.532406667,0.532661667,0.532845,0.532486333,0.532471333,0.531873667,0.531533,0.531036667,0.530363,0.529938,0.528997333,0.528002667,0.527024,0.525497667,0.523126,0.518782333,0.513217,0.507013,0.502090333,0.498465,0.496362667,0.495032,0.494220333,0.493773667,0.492534333,0.491936333,0.491387667,0.491342333,0.491466667,0.491874667,0.492539667,0.493372333,0.494380667,0.495369667,0.496017,0.496605333,0.497023667,0.497898667,0.498209333,0.498540667,0.498676667,0.498385667,0.498050667,0.497591333,0.496624667,0.4955,0.493847,0.491887333,0.489334667,0.486184667,0.483193667,0.478861,0.473777,0.467971333,0.461714333,0.454911333,0.448312333,0.441858333,0.435638,0.429543,0.423137667,0.41523,0.404267333,0.389004667,0.367491333,0.338752333,0.304944667,0.270912333,0.239742667,0.213893667,0.195021667,0.181224333,0.171720333,0.164898333,0.160245667,0.157419333,0.155822,0.155144667,0.155171333,0.156024667,0.157919,0.161352333,0.166358667,0.172522667,0.179355333,0.186754333,0.194638,0.202777333,0.211021333,0.219194333,0.227416333,0.235411333,0.243125667,0.250696,0.258061667,0.265151,0.271948333,0.278439667,0.284980333,0.290825,0.295996667,0.301016333,0.305694667,0.310278667,0.314954333,0.319308333,0.323413667,0.327633,0.331460667,0.335268,0.338592333,0.342164333,0.345334333,0.348291,0.350855,0.353217667,0.355558333,0.357379,0.359264,0.360377,0.361027333,0.361486667,0.361860333,0.361215333,0.360161,0.358189,0.356113,0.354026667,0.352123333,0.350110667,0.348415667,0.346862,0.344871667,0.342113,0.338834667,0.335616667,0.331936667,0.328251333,0.323829,0.320058333,0.316163,0.312460333,0.309111667,0.306371,0.304862667,0.303783,0.303356,0.303619667,0.304259667,0.304588333,0.304879,0.304983,0.304614667,0.304247,0.302793,0.300371,0.296846,0.290964667,0.282459,0.270285333,0.254647667,0.236519333,0.211193,0.179853,0.147463,0.115544667,0.088072667,0.067559333,0.053699333,0.045470333,0.041716333,0.039301333,0.037750667,0.037364,0.037272,0.037799,0.039018333,0.040207,0.041850667,0.044019667,0.046547333,0.049174,0.052279,0.055629333,0.059372333,0.063442333,0.067863333,0.072503,0.077278333,0.082226667,0.087367667,0.092357667,0.097334,0.102472,0.107297,0.111981667,0.116580667,0.120634333,0.124924333,0.129167,0.133748,0.138245667,0.142935,0.147303333,0.152018,0.156260667,0.160923333,0.165567333,0.170075,0.174576333,0.178999,0.183405,0.188267667,0.192367,0.196929333,0.200507,0.204030667,0.207178667,0.209801333,0.212245333,0.214815333,0.216728667,0.218337667,0.220317333,0.222201667,0.224626,0.227055667,0.228445667,0.230202667,0.23152,0.232527333,0.233730667,0.233566,0.233404,0.232597333,0.230343,0.227696667,0.224533667,0.219846333,0.214921,0.20953,0.203719667,0.198471333,0.192933333,0.187461,0.183004333,0.18011,0.177216667,0.173525667,0.169480667,0.164884333,0.161641333,0.159034667,0.155766333,0.152688333,0.150144333,0.146504333,0.142524333,0.139215667,0.135820667,0.132508,0.128911667,0.125065,0.121709333,0.11816,0.114442667,0.110413333,0.106869,0.103189333,0.098944333,0.094598,0.090938333,0.087344,0.083099667,0.079828,0.076751,0.073421667,0.069498667,0.066066,0.062666,0.059932667,0.057385,0.055354667,0.053755,0.052862333,0.051022667,0.048939333,0.048724,0.048719333
0.555676667,0.557343667,0.559767667,0.561039333,0.561662,0.562475667,0.563159,0.564175,0.565527667,0.566762667,0.565877667,0.565877,0.566395667,0.566479667,0.566709667,0.566377333,0.566149667,0.565428667,0.564935333,0.564744667,0.563639333,0.563041667,0.56216,0.560895333,0.560333,0.558673333,0.555598667,0.550354667,0.543852667,0.537306,0.532397667,0.528092,0.525731,0.524253,0.523948667,0.523558,0.522479333,0.521914333,0.521484,0.521460333,0.521514,0.521995667,0.522683,0.523135667,0.523900667,0.524582667,0.525132,0.525281,0.525863667,0.526469333,0.526668333,0.526987333,0.527241,0.527009,0.526482667,0.526181333,0.524899667,0.523377333,0.521742,0.519371667,0.516174,0.512524333,0.509077,0.504133667,0.498578,0.492590667,0.485574,0.478385,0.471155667,0.464744,0.458576,0.45276,0.445721667,0.437330667,0.425809333,0.409928333,0.387454667,0.357266,0.322437667,0.288066333,0.257814667,0.233333667,0.215848,0.203281333,0.194314667,0.187884,0.183561333,0.180783333,0.178953333,0.178159,0.178032,0.178705333,0.180326667,0.183454667,0.188227667,0.194134667,0.200820333,0.207780667,0.215403333,0.223375333,0.231824667,0.240228333,0.248278,0.256512,0.264406,0.27242,0.280508667,0.287958667,0.295134,0.302564,0.309672,0.316216,0.322101667,0.327667667,0.332674667,0.337701,0.342873333,0.347160333,0.351528,0.355604,0.359188667,0.363105,0.366388333,0.369655,0.372192667,0.374849,0.376997,0.379051,0.381262333,0.382993,0.384656667,0.386005333,0.386723667,0.387195667,0.387600333,0.387069667,0.386403333,0.385248,0.38411,0.382357333,0.381052333,0.379204333,0.377645333,0.375702667,0.373210333,0.370514667,0.367103667,0.36399,0.360872333,0.356467333,0.351566333,0.347518,0.342879,0.339002667,0.335600333,0.332878667,0.330291,0.329283667,0.328258667,0.328429,0.328696,0.328853,0.328426333,0.328113,0.327790667,0.326376333,0.324863667,0.321835,0.317408667,0.311002,0.301891,0.289279333,0.273430333,0.256349,0.23352,0.201989,0.169613333,0.139134333,0.113663667,0.093682333,0.081041,0.071947333,0.067029667,0.064786,0.063636667,0.063067667,0.062625667,0.063325,0.064432333,0.066179,0.067643,0.069993333,0.073063333,0.075566333,0.078355,0.082204333,0.086059,0.089768333,0.093584333,0.098155333,0.103080333,0.107633,0.112562,0.117763,0.122687333,0.127707667,0.132832333,0.138515333,0.142958333,0.1481,0.153328333,0.158304667,0.163968,0.168869333,0.174388667,0.180543667,0.185752333,0.191929667,0.197108,0.202558,0.207297667,0.213699333,0.217938333,0.223893667,0.229093,0.233064333,0.237891667,0.241412,0.245285,0.248097,0.250815,0.252666,0.254957667,0.256118333,0.257725667,0.258794333,0.260296667,0.261153667,0.262481333,0.263677333,0.264382333,0.264210667,0.265537333,0.265245333,0.265291,0.264297,0.263340667,0.260832333,0.258391,0.256239,0.252551,0.248863667,0.244858,0.240270667,0.235782333,0.231786667,0.227898,0.224397333,0.220237333,0.216035667,0.212057333,0.207186667,0.202746333,0.199781,0.196437,0.191735333,0.187198,0.183215667,0.179311333,0.174971,0.170537333,0.166517,0.162853667,0.158121333,0.153113667,0.148607667,0.14519,0.140851333,0.136642333,0.132262,0.128328333,0.123775667,0.121744667,0.118248667,0.113743333,0.108235,0.104885333,0.101639667,0.099328,0.095412667,0.09134,0.087362333,0.084942333,0.082943667,0.080764333,0.076905,0.072885,0.070711667,0.070165,0.069734333,0.067813333
0.529900667,0.531571,0.533799667,0.534978667,0.536235,0.536941667,0.538389,0.53874,0.539752667,0.54092,0.540804,0.541786,0.541919333,0.54207,0.542237333,0.542038667,0.542212667,0.541339667,0.540799333,0.540123667,0.539437333,0.538778667,0.538014333,0.53703,0.535826,0.533788667,0.530562,0.525390667,0.518859,0.511444333,0.505110667,0.500395667,0.497854333,0.496092,0.495061333,0.494674667,0.493313,0.492652333,0.491929333,0.491275333,0.491716,0.492344333,0.493289333,0.494314,0.494939,0.495819,0.49689,0.497537667,0.498154,0.499212667,0.499808,0.500138667,0.499866667,0.500240667,0.499771667,0.498994,0.498048667,0.496766,0.494862667,0.492384667,0.489169333,0.485688333,0.481685667,0.476405,0.470676,0.464207667,0.456751333,0.448613333,0.440885,0.433839333,0.426888333,0.420528333,0.41326,0.404502667,0.392578667,0.375933667,0.352819667,0.322162,0.286391333,0.251002333,0.219500333,0.193998667,0.175461,0.162141667,0.152734,0.145956,0.141131,0.137952333,0.135962333,0.135126333,0.134802333,0.135066333,0.136601667,0.139463667,0.143772667,0.149186667,0.155643333,0.162235333,0.169714,0.177632333,0.185695,0.193662333,0.201452667,0.209566,0.217442333,0.225277667,0.23294,0.240531,0.247807333,0.254807,0.261795333,0.268388667,0.274512667,0.280148667,0.285174667,0.289934333,0.295207333,0.300050333,0.30444,0.30877,0.312994667,0.317216667,0.320881333,0.324365333,0.327465667,0.330632333,0.333558667,0.336257667,0.338600333,0.340446667,0.342332333,0.343576667,0.344584333,0.34526,0.345831667,0.345215333,0.344039333,0.34235,0.340918667,0.338653,0.336886667,0.335050667,0.333488,0.331365,0.329815,0.327223333,0.323431667,0.320143,0.31632,0.312503667,0.308100333,0.303622333,0.299286333,0.295703333,0.292134667,0.289314667,0.287027333,0.285999667,0.285555667,0.285583667,0.285946333,0.286584667,0.286749667,0.286937,0.286681,0.285673,0.284568667,0.282559333,0.278208333,0.272078333,0.263424,0.251332667,0.235507,0.217936667,0.194248333,0.164306667,0.134087333,0.104494,0.079994667,0.063438667,0.052475667,0.045545333,0.042891,0.040346,0.039455333,0.038876667,0.038554667,0.039021667,0.039751333,0.040714333,0.041724667,0.042869,0.044707667,0.046648667,0.048887,0.051315667,0.054116333,0.057188333,0.060568333,0.063817333,0.067501333,0.071364333,0.075283,0.079818667,0.083782333,0.087808,0.092303333,0.096761667,0.100892667,0.104928667,0.109028333,0.113386667,0.117315667,0.121924667,0.126587667,0.131007667,0.136615667,0.141018667,0.145393333,0.150579,0.154703,0.159898667,0.164438667,0.168927,0.173292333,0.178162,0.181820333,0.185925,0.188828667,0.191981333,0.194915,0.197694667,0.199286333,0.201333667,0.202594333,0.204255333,0.206276,0.208485667,0.210778333,0.212621667,0.214849,0.215739667,0.216881333,0.216449333,0.216971333,0.216815667,0.215873333,0.214172,0.211908667,0.208531333,0.205030333,0.200517333,0.195581667,0.190542,0.18608,0.18118,0.176237667,0.171775,0.168706333,0.165713,0.162200667,0.157761667,0.153504333,0.150646667,0.147379333,0.143691667,0.140512667,0.137157333,0.134244667,0.130488,0.126144333,0.122955333,0.119237,0.115733667,0.112314667,0.108888667,0.105094333,0.102102,0.098754333,0.095419667,0.091545333,0.088332667,0.085226333,0.081535667,0.078043667,0.074425667,0.072472333,0.069925667,0.066155,0.063721,0.060857,0.058762,0.055996667,0.054156,0.050915,0.049689667,0.049596667,0.050152667,0.047367667,0.046667,0.045530333
0.544852667,0.546039,0.547363,0.548657667,0.549266333,0.550028,0.550791333,0.551330333,0.552301,0.553278,0.553574667,0.553995,0.554072,0.554581333,0.554685667,0.554219,0.553832333,0.553276333,0.553106,0.552992,0.552188667,0.55145,0.550527,0.54979,0.549007333,0.547508,0.545342,0.541565,0.536274333,0.53004,0.525094667,0.521655,0.519714667,0.518198333,0.517264,0.516854,0.516211,0.515719333,0.514937667,0.514810333,0.514735667,0.515116667,0.516208,0.516992,0.51781,0.518752333,0.519662,0.519898333,0.52069,0.521335667,0.521514667,0.52199,0.521813333,0.521669,0.521537333,0.521124,0.520456333,0.519238333,0.517428,0.515463333,0.512923333,0.509775667,0.506766667,0.502765,0.497486333,0.491640667,0.485816,0.479111,0.472246,0.466173,0.460211333,0.454147333,0.447757667,0.439939667,0.429150333,0.413886,0.392679667,0.363922667,0.329933,0.294992,0.263029333,0.236233333,0.216656,0.202252333,0.192678333,0.185531333,0.180644333,0.177746333,0.176014333,0.175349333,0.175380667,0.176230667,0.178142667,0.181399667,0.186686,0.192913333,0.200298667,0.207830333,0.216060333,0.224704667,0.233252667,0.241476,0.250059667,0.258604333,0.266640667,0.274647333,0.282253333,0.289576667,0.296448,0.303398,0.310290667,0.316532333,0.321831,0.327138667,0.332181333,0.336485,0.341695333,0.346080333,0.350284333,0.354680333,0.35861,0.362086333,0.365117333,0.368671,0.371647,0.374792333,0.377634667,0.380138667,0.382158,0.383613667,0.385119667,0.386394667,0.387613,0.387917667,0.388386333,0.387643333,0.386954,0.385154,0.383451,0.381536667,0.379665667,0.377453333,0.376124,0.374068333,0.371854333,0.369058,0.366202333,0.363484333,0.359545,0.355565,0.351160333,0.347131667,0.343032,0.339417333,0.335307667,0.332646333,0.33082,0.330337667,0.329109667,0.329434333,0.329747333,0.330475333,0.33036,0.330916333,0.331013667,0.330656667,0.329450333,0.326962,0.322639667,0.316499333,0.308292667,0.296014667,0.279684333,0.260337,0.234629,0.201401333,0.166573333,0.132516667,0.102323333,0.079758,0.063261667,0.053910333,0.049902,0.046548333,0.044905,0.044201333,0.044240333,0.044859333,0.046336,0.047508,0.049674667,0.052441667,0.055342,0.058228667,0.061919,0.066152667,0.070399,0.075180667,0.080168667,0.085039,0.090474,0.095530667,0.101263333,0.10676,0.112033333,0.117721333,0.123219667,0.127862,0.133039667,0.138530667,0.142806,0.147559333,0.152106,0.157532,0.162209667,0.167403,0.171933667,0.176957333,0.181421,0.187003333,0.191054667,0.196415667,0.201673667,0.205694333,0.210714667,0.215607333,0.219549,0.223825,0.227344333,0.231082,0.233269333,0.236337667,0.238567667,0.240359667,0.241989333,0.243657,0.244971667,0.247588667,0.249488,0.251385667,0.251874,0.253632,0.254762667,0.254821333,0.254976,0.254894,0.253264667,0.251484667,0.249179333,0.245388333,0.241575,0.236752,0.231411667,0.226131667,0.220279,0.215234667,0.210047333,0.205329667,0.202333,0.199331333,0.195225667,0.191016667,0.186081,0.182255333,0.179680667,0.17651,0.172869,0.168625667,0.164984667,0.161662667,0.157807,0.154276333,0.150650333,0.146980333,0.142677667,0.139031,0.134642667,0.131004,0.126248333,0.12175,0.118247333,0.115503,0.109769333,0.105182,0.100976333,0.096697333,0.093064667,0.090313,0.086211333,0.081938667,0.077181,0.074155333,0.072102667,0.069666667,0.065779667,0.062861,0.061348,0.060613,0.059523667,0.056171667,0.054133333
0.530658333,0.532533333,0.534935333,0.536530333,0.537576667,0.538779667,0.539820667,0.54091,0.541841667,0.542871667,0.543226333,0.543636667,0.543931333,0.544429333,0.544333333,0.544316667,0.543685333,0.542739,0.542903,0.542280333,0.541089,0.540348,0.539145,0.538032667,0.536705333,0.534604667,0.531249333,0.525581667,0.518365,0.509449667,0.502644,0.497480667,0.49474,0.492910667,0.491652333,0.490983,0.489509,0.488571667,0.487462,0.487111667,0.487242333,0.487934667,0.489170667,0.490148667,0.490781,0.491596,0.493003333,0.493623333,0.494480333,0.495642,0.495748667,0.496396333,0.496661,0.496788667,0.49598,0.495318,0.494517,0.492951667,0.490586333,0.487817333,0.484702667,0.480507333,0.476368667,0.470819333,0.464354,0.456925,0.448882333,0.440389667,0.432072333,0.424428333,0.417076,0.409851,0.402613667,0.393561333,0.381072667,0.363783667,0.340139333,0.308470667,0.272310333,0.237158333,0.205897333,0.180679,0.162789,0.150152333,0.141035333,0.134575,0.130082,0.127001,0.124957,0.124090333,0.123782,0.124052333,0.125125667,0.127426667,0.131447333,0.136271333,0.141930333,0.148234667,0.155061667,0.162085,0.169793333,0.177415,0.185002333,0.192945667,0.200696333,0.208597333,0.215897,0.223283667,0.230506333,0.237465,0.244621333,0.251245,0.257050667,0.262828333,0.268176,0.273213,0.278397333,0.283280333,0.287878333,0.292436,0.296698333,0.300933,0.304565333,0.308420667,0.311821,0.315048667,0.318060333,0.321011667,0.32352,0.325371333,0.327223333,0.328702667,0.329769667,0.330713667,0.331213333,0.330986667,0.32994,0.327985667,0.326459333,0.324780333,0.322907333,0.320817333,0.319392,0.317048,0.314604,0.312018,0.308654667,0.305452,0.301393333,0.296810667,0.292688,0.287882333,0.283800333,0.280027333,0.276251333,0.273381333,0.270935,0.270283,0.269704333,0.269494333,0.269886,0.270619333,0.271096333,0.271380667,0.271216333,0.270625333,0.269092,0.266822333,0.262771,0.256616333,0.248038,0.235434333,0.220179333,0.201907333,0.179042333,0.1502,0.121516,0.096678333,0.075910667,0.062651,0.052129333,0.047838333,0.044786333,0.04306,0.042330333,0.041595333,0.041531333,0.041921,0.042548,0.043309,0.044422667,0.045608333,0.046821667,0.048664,0.050047,0.051799333,0.054105667,0.055983667,0.059181667,0.061472333,0.064633333,0.067125667,0.070957333,0.074066333,0.077557333,0.080968667,0.084716,0.087703333,0.091424,0.094961333,0.09855,0.101687,0.105106333,0.109924333,0.113477333,0.117786,0.121471,0.125686667,0.129592333,0.133807333,0.137908,0.141939667,0.146268,0.150235,0.154352333,0.158546333,0.162272333,0.165213667,0.168786,0.171443667,0.174031667,0.175858333,0.178069333,0.179558,0.181497333,0.182640333,0.184833,0.186619667,0.187629667,0.189628667,0.190987667,0.191815667,0.192360333,0.193172333,0.193336,0.193027,0.191877667,0.190444,0.188524,0.185625667,0.182223333,0.177690667,0.173452,0.169232,0.164608,0.160658667,0.156048,0.152236333,0.149969667,0.146908,0.143471667,0.139797667,0.135714333,0.132532667,0.129809333,0.126883667,0.124064333,0.121528333,0.117830667,0.114537333,0.111253,0.108449333,0.105546667,0.102136333,0.099156333,0.095835667,0.093362667,0.091181,0.088623667,0.084896,0.081019,0.078698,0.076287333,0.074045,0.071194333,0.068270333,0.064943333,0.062690333,0.060591333,0.058941333,0.057203667,0.054071667,0.051867667,0.049605333,0.049350667,0.049027667,0.047311667,0.046156,0.044105,0.044210333,0.042138
0.515279,0.516885,0.519001667,0.520300667,0.521146,0.52179,0.523102333,0.523651,0.523591,0.524775,0.525756333,0.525728333,0.525734333,0.526072667,0.526357,0.525909,0.525834,0.524959333,0.524557333,0.524428667,0.523189667,0.522400667,0.521684667,0.520851667,0.520242667,0.518346,0.515188,0.510656333,0.504943,0.498342667,0.492776333,0.489058,0.486950667,0.485528333,0.484842333,0.484596,0.483726667,0.483319,0.482703,0.482717,0.482974333,0.48328,0.483724667,0.484333,0.485288,0.486257,0.486803333,0.487221333,0.487727333,0.488543,0.488798667,0.489044333,0.489275,0.489045,0.488497667,0.487942,0.486668333,0.485229333,0.483613667,0.481405667,0.478638333,0.475068,0.471654667,0.467074333,0.461397,0.454975,0.448088333,0.441191333,0.434435667,0.428206333,0.421926,0.415669667,0.408722667,0.400562,0.389179667,0.373194333,0.350821333,0.320631333,0.286384,0.252787,0.222621333,0.198577,0.181332333,0.16891,0.160408333,0.154287667,0.149882667,0.147392667,0.145674,0.145014333,0.145058667,0.145671,0.147446,0.150751667,0.155375333,0.160990667,0.167732667,0.174818333,0.182402333,0.190236,0.198359,0.206524333,0.214877667,0.223132667,0.230892667,0.238911,0.247136333,0.254921333,0.262115333,0.26932,0.276614,0.283193667,0.289136333,0.294599333,0.299664667,0.304854667,0.309603333,0.313963333,0.318353,0.322711333,0.326621333,0.330342,0.333196,0.336494333,0.339274667,0.341920667,0.344229667,0.346758667,0.348626333,0.350498333,0.351929667,0.353327,0.353753,0.354206,0.354489667,0.353928667,0.353671333,0.352316,0.351089667,0.349797667,0.348240333,0.346411333,0.344697,0.342761333,0.340408667,0.337384333,0.334275,0.330974333,0.327421333,0.323605,0.319281667,0.314896,0.310769,0.306887,0.30328,0.300267667,0.298663,0.297323,0.296194667,0.295954333,0.295836,0.296027667,0.296434667,0.296063333,0.295790333,0.2951,0.293290667,0.290933,0.286101,0.279594,0.270364667,0.257324333,0.240431333,0.221555333,0.196817667,0.165827,0.135143667,0.106964,0.083896,0.067502,0.055786333,0.050449333,0.045376667,0.044408333,0.042973667,0.04247,0.042278667,0.042513333,0.043105333,0.044651333,0.045774333,0.047256,0.049167333,0.051165333,0.053814333,0.05627,0.059138333,0.062144667,0.065330333,0.069280333,0.072901,0.076937333,0.081289667,0.085199667,0.090020333,0.094237667,0.098667333,0.103415333,0.107941,0.111905667,0.116369333,0.12097,0.125552667,0.130720667,0.136068667,0.140775333,0.145773667,0.151462667,0.156120667,0.161465333,0.166351333,0.171172333,0.176180667,0.181085,0.185653,0.189991,0.193976333,0.197774667,0.200197333,0.203259333,0.205720667,0.207741667,0.209412333,0.210896333,0.212669,0.213820667,0.213865667,0.216675333,0.217639333,0.218971333,0.219653,0.220752333,0.221530667,0.221587333,0.221112667,0.220606333,0.219935667,0.217972333,0.215691333,0.213078,0.209669333,0.205826,0.202049667,0.198049333,0.193719,0.190086667,0.186764667,0.183004,0.179593,0.175951667,0.172098,0.168393333,0.164124,0.160514667,0.157291,0.153309333,0.149549333,0.145559667,0.141202,0.137645333,0.134121333,0.130512667,0.126737333,0.123221333,0.119361333,0.115422,0.111743333,0.108364667,0.104313333,0.100800667,0.097056,0.095100333,0.091640333,0.087796667,0.084199333,0.082374333,0.078562333,0.074207,0.069219,0.065477,0.063775667,0.062153667,0.060059333,0.056525,0.054148333,0.052364,0.052793,0.053993667,0.052534667,0.050256333,0.047835667
0.521373333,0.522286667,0.523219667,0.52422,0.524773,0.525651667,0.526256333,0.527019,0.527650333,0.52835,0.528413333,0.528135,0.528686333,0.5291,0.529131333,0.528918,0.528744667,0.52831,0.527810667,0.527313333,0.526882,0.526212,0.525684333,0.524731333,0.523759667,0.522240333,0.520005667,0.515898,0.510638333,0.505051667,0.500654667,0.497806667,0.496173333,0.495144,0.494564,0.494693333,0.494207,0.493709,0.493502333,0.493485333,0.493834667,0.494225333,0.494819667,0.495529,0.496154,0.496936,0.497544333,0.497927,0.498098,0.498801333,0.499052,0.499278,0.499281667,0.499031333,0.498801,0.498230333,0.497187333,0.496023667,0.494593,0.492779667,0.490145667,0.487378667,0.484451333,0.480410333,0.475717667,0.470444333,0.464723667,0.458418,0.452352,0.446446667,0.440557667,0.434819333,0.428554667,0.420939667,0.410555667,0.395800667,0.374958,0.347492333,0.315163,0.282536667,0.252706333,0.228207,0.210845333,0.198532667,0.190361333,0.184888333,0.181508,0.179689333,0.179096667,0.179315,0.179922333,0.181466667,0.183982,0.188131667,0.193762333,0.200612,0.208313,0.216190333,0.224575667,0.233110333,0.241596667,0.249998,0.258354333,0.266469333,0.274389,0.282028667,0.289447667,0.296461667,0.30322,0.309828667,0.316435333,0.322296333,0.327295667,0.332286,0.336727,0.341100667,0.345455,0.349637333,0.353363667,0.357105,0.360654333,0.363918,0.366697333,0.369637667,0.372283333,0.374612333,0.376859333,0.378941333,0.380627,0.382027,0.38364,0.384469,0.384791333,0.385232333,0.385584333,0.384817667,0.383741,0.382232667,0.380911667,0.379629667,0.377876333,0.376032667,0.37416,0.372282333,0.370229667,0.367603667,0.364469333,0.361360333,0.358097333,0.354477333,0.350292667,0.346204,0.342286,0.338439,0.335108333,0.332235667,0.330282667,0.328862,0.327887667,0.327697,0.328075,0.327924667,0.327714,0.327498667,0.326919333,0.325973,0.324387667,0.321422667,0.317434,0.311038667,0.302268333,0.289594667,0.272735667,0.253143333,0.226660667,0.194406333,0.160722,0.128164667,0.099516,0.077407667,0.062483667,0.053641,0.049571,0.046939,0.045343333,0.045226667,0.045329,0.046189,0.047774667,0.049849333,0.052244667,0.055077,0.058150667,0.061552667,0.065472667,0.069906667,0.074394333,0.079373333,0.084610667,0.090116333,0.095672,0.101452333,0.107511333,0.113400333,0.118989,0.124761333,0.130343333,0.135948,0.141249333,0.146261667,0.151366333,0.156510333,0.161513333,0.167058667,0.172539333,0.178018667,0.183200333,0.188338333,0.193472333,0.198456667,0.203548333,0.208678,0.213469,0.218329667,0.222933667,0.227603333,0.231777333,0.234753333,0.238227667,0.240682333,0.243303333,0.245067,0.246812667,0.248141333,0.249501333,0.250562333,0.251851,0.253443,0.255078667,0.256563667,0.257313667,0.257801667,0.258715667,0.259153333,0.258956333,0.258385333,0.257039,0.255274,0.252755,0.249544,0.245912333,0.241458,0.236997333,0.232622333,0.228057333,0.223414667,0.218746667,0.214679333,0.211291667,0.207851667,0.203836667,0.199397,0.195375333,0.191575333,0.188357333,0.184715667,0.181183667,0.177722333,0.173093333,0.168770333,0.165128667,0.161557,0.157137,0.152699,0.148766667,0.144794333,0.140389,0.136258333,0.131879,0.127908333,0.124159333,0.119172333,0.114589,0.110725667,0.106577333,0.101951,0.097641667,0.093551667,0.089733667,0.085768667,0.082176,0.078515,0.074727667,0.071477,0.069105,0.066897667,0.064122667,0.062739333,0.061133667,0.059247667,0.057778333
0.514493,0.515497333,0.516375,0.517662,0.518290333,0.519399667,0.520056,0.520877667,0.521424,0.522034333,0.522316333,0.522207667,0.522811667,0.522995333,0.523059,0.523014667,0.522713667,0.522571667,0.521786667,0.521335667,0.52086,0.520285667,0.519755,0.518710333,0.518020333,0.516539667,0.514177,0.509964333,0.504907333,0.499309667,0.494396667,0.491297333,0.48937,0.488255333,0.487389667,0.487239,0.486398,0.485577,0.485137,0.485207667,0.485354,0.485716333,0.486383667,0.487260333,0.488213667,0.489368,0.48992,0.490403,0.490953333,0.491775667,0.492073667,0.492199667,0.492445333,0.492134,0.491817333,0.491342333,0.490521,0.489744667,0.487954667,0.485975333,0.483601333,0.480688,0.477657333,0.473541,0.468924333,0.463581,0.457805,0.451533333,0.445410333,0.439218,0.433215,0.427299,0.421105667,0.413431333,0.403007,0.388840667,0.368491,0.341471667,0.309291333,0.276741333,0.246868333,0.221803,0.203574667,0.190270667,0.181320333,0.175001667,0.170904,0.168504667,0.167329333,0.167113667,0.167376667,0.168505,0.170541333,0.174182333,0.179296,0.185503,0.192582333,0.200031333,0.207856333,0.215681,0.223833333,0.231842333,0.239675333,0.247228667,0.254667,0.261863667,0.268906667,0.275603667,0.28201,0.288289333,0.294217667,0.299736,0.304685667,0.309438667,0.313628333,0.317748,0.322016667,0.326089333,0.330044667,0.334049,0.337728,0.341205333,0.344478667,0.347849667,0.350814667,0.35353,0.356160333,0.358398333,0.36053,0.362182,0.363892,0.364806,0.365507333,0.365897667,0.365940667,0.365279,0.364261667,0.362407,0.360285667,0.358271667,0.356163333,0.354388,0.352638667,0.351149333,0.349201,0.346598667,0.343239667,0.340089667,0.336501,0.332838,0.328973,0.325296333,0.321509667,0.318149,0.314851667,0.311939333,0.310622,0.309593333,0.309044333,0.309008,0.309658,0.309911,0.310322333,0.310507,0.310169333,0.309455,0.308318,0.306145667,0.302760333,0.297037,0.288724,0.276961667,0.261261333,0.242591333,0.217605,0.187304,0.1548,0.123183333,0.095296,0.073862,0.058518,0.050452,0.046117333,0.043278333,0.041801333,0.041391333,0.041770333,0.042517,0.043601,0.045361667,0.047273667,0.050088667,0.052627,0.056015333,0.059580667,0.063396333,0.06753,0.072453667,0.076940667,0.082199333,0.087159,0.092640667,0.097915333,0.103149,0.108303,0.113128667,0.118029667,0.122561333,0.126808,0.13148,0.135193333,0.139500667,0.143282333,0.148109667,0.152171,0.156277667,0.160437,0.164582,0.168883,0.173014,0.177434667,0.181208667,0.185268667,0.189391,0.193612,0.197978,0.201867667,0.205233,0.208594667,0.211275667,0.213628333,0.216141667,0.21793,0.219518333,0.221618333,0.223081667,0.224848333,0.227307,0.228956667,0.231273667,0.232266667,0.233780667,0.2345,0.235328333,0.235775333,0.235267,0.234316667,0.23252,0.229913667,0.226412667,0.222004333,0.216741,0.211408667,0.205929,0.200726667,0.195653,0.190221,0.186043333,0.183145667,0.180445667,0.177267333,0.173156333,0.169002667,0.166038333,0.163554667,0.160520667,0.157734,0.155308,0.151869333,0.148203333,0.145075333,0.141769667,0.138409333,0.134737,0.131282,0.127553333,0.124155333,0.120735,0.117540667,0.113587667,0.109385333,0.105607667,0.101707,0.097331,0.093594,0.090286,0.087005,0.082979,0.078935,0.075445333,0.072107333,0.068648,0.065428333,0.062830667,0.060043667,0.057804667,0.056219667,0.055299,0.054540667,0.053187333,0.052365
0.510193333,0.511505667,0.512912,0.514510667,0.514843333,0.516321667,0.517248667,0.518258,0.519424333,0.520071667,0.520125667,0.520369667,0.520552333,0.520836,0.521329333,0.520957667,0.521027333,0.520392,0.519782,0.519306333,0.518325667,0.517841333,0.517329667,0.516242333,0.514985333,0.512899,0.509861,0.504657667,0.498351667,0.491284,0.485101333,0.480907667,0.478822,0.47804,0.476979,0.476578667,0.475597,0.475172333,0.474567667,0.474301667,0.474722333,0.475589,0.476293667,0.477068333,0.47778,0.479025667,0.479889333,0.480014,0.480516667,0.481363667,0.481765667,0.482188,0.482476333,0.482182,0.482,0.481426333,0.480202333,0.478841667,0.476544,0.474459,0.471443667,0.467655333,0.463819,0.458772667,0.453217333,0.446790333,0.439677667,0.43193,0.424731,0.417777667,0.410965,0.404478,0.397542667,0.388794,0.376837667,0.360177333,0.336365333,0.305789333,0.270469333,0.235987,0.205538333,0.181253333,0.163936,0.151433333,0.143058333,0.137106,0.133114667,0.130913667,0.129416,0.128973667,0.129038333,0.129887667,0.131581333,0.134662667,0.139531667,0.145454333,0.152027333,0.158987333,0.166725,0.174849333,0.182949,0.191125333,0.199269667,0.207478,0.215330667,0.223332667,0.231198333,0.238767333,0.246052,0.253035,0.260306333,0.266718,0.272328667,0.277939,0.283492333,0.288295667,0.293068667,0.297788667,0.301906,0.30632,0.310286667,0.314303667,0.317687667,0.321157667,0.323814,0.326849333,0.329495333,0.331991,0.334268333,0.33608,0.337483667,0.338631667,0.338883,0.339260333,0.3399,0.339336,0.338404667,0.336803,0.335105667,0.333426,0.33175,0.329809333,0.328093333,0.325901,0.323491,0.320957667,0.317908,0.314140333,0.310521,0.306480667,0.302206333,0.298109667,0.293713667,0.28978,0.28631,0.283824,0.281308333,0.280194333,0.279223667,0.279498667,0.279570667,0.280094,0.279933667,0.279869667,0.279828,0.279123667,0.276922,0.27405,0.269852333,0.263389333,0.253730333,0.240653667,0.224444667,0.206451333,0.181759333,0.151977333,0.122217667,0.093682,0.070278333,0.054032333,0.042618667,0.036505333,0.033672,0.032445333,0.031286,0.031187333,0.030863667,0.03156,0.031785,0.033424,0.034283,0.035766,0.038050667,0.039553,0.041810333,0.044548,0.047532667,0.050685,0.053930667,0.057973333,0.061950333,0.066075,0.070387333,0.074658667,0.079043333,0.083744667,0.088351333,0.092530333,0.097114,0.101392333,0.105807667,0.110257667,0.114886,0.120283333,0.125275,0.130267667,0.135579667,0.140242,0.145575667,0.150297667,0.155462667,0.159818,0.164787333,0.169284667,0.173667667,0.178832667,0.182661667,0.186324333,0.190163,0.1923,0.194579667,0.196960667,0.198708667,0.200251333,0.202353333,0.203318,0.204676667,0.20709,0.208266,0.210584667,0.211545,0.213084667,0.213162667,0.214100333,0.214097333,0.213668667,0.212261333,0.210610667,0.208177333,0.205025333,0.202112667,0.197774333,0.192655667,0.187796667,0.183182,0.179053667,0.17478,0.170409667,0.167119333,0.163446667,0.159670667,0.155613,0.151996667,0.148205667,0.144917667,0.140844333,0.137828,0.134530667,0.130905,0.126387,0.121841333,0.118069667,0.115296,0.112110333,0.107836,0.103449333,0.100750333,0.098221,0.094269,0.088713667,0.084912333,0.082631333,0.080181333,0.076251,0.072199,0.071099667,0.067559333,0.064168667,0.060366,0.057884667,0.054632667,0.051471667,0.048705667,0.046066667,0.044400667,0.043267333,0.041693,0.040386,0.038377333,0.037699667,0.035957333
0.537926,0.539146,0.540742,0.541713333,0.542908667,0.544214,0.544996667,0.546052667,0.546295333,0.546948667,0.547582333,0.548019333,0.548074,0.548317333,0.548683667,0.548659,0.548153333,0.547574,0.546962,0.546376333,0.546153667,0.545549667,0.544546667,0.54404,0.542988333,0.540426333,0.537377333,0.532999667,0.526688667,0.51966,0.513834,0.509133,0.507373,0.506210333,0.505379333,0.505109333,0.503831,0.503224333,0.502136667,0.502177333,0.502676667,0.503070333,0.503916333,0.504832,0.505700667,0.506866667,0.507706667,0.508047333,0.508631,0.509279333,0.509904,0.510332333,0.510471333,0.510340333,0.509946667,0.509388,0.508158,0.506799333,0.505018,0.502612667,0.499874333,0.496441667,0.492460667,0.487779667,0.482358,0.475748333,0.468619,0.461194333,0.453625333,0.446544333,0.439894667,0.433252,0.426303,0.417798667,0.406109333,0.389507667,0.366214333,0.335083667,0.299154333,0.262791333,0.230646,0.204542,0.185577333,0.171904667,0.162444667,0.155669,0.151069,0.148330667,0.146596667,0.146075333,0.146000667,0.146804667,0.148570333,0.151866667,0.156915667,0.162892333,0.170157667,0.177749,0.18552,0.193864667,0.202231333,0.210834333,0.219029667,0.227672,0.235773,0.244137333,0.252035333,0.259593333,0.266793667,0.273869333,0.281126333,0.287295667,0.293277,0.298855667,0.304076333,0.308595333,0.313598333,0.318386333,0.323030667,0.327583,0.331746333,0.335568667,0.338733333,0.342794333,0.345824667,0.348857333,0.351388,0.354481,0.356886667,0.358702,0.36022,0.361785667,0.362508333,0.362916333,0.363346,0.363027333,0.362177333,0.360325,0.358824333,0.357062667,0.355227333,0.353227333,0.351464,0.349228333,0.346600667,0.344204,0.340982333,0.337886333,0.333891,0.329378333,0.324931,0.320494667,0.316507,0.312682333,0.308284,0.305808667,0.303331667,0.302308333,0.301495,0.302084,0.302151667,0.302671,0.302981,0.30277,0.302498333,0.302216667,0.300875,0.297978,0.294207333,0.287774667,0.278722333,0.265572333,0.248955667,0.228439667,0.202822667,0.171541667,0.139130333,0.108213667,0.081553,0.062322333,0.050311667,0.042152667,0.039413,0.036795667,0.035360333,0.035235,0.034794,0.035783333,0.036248333,0.037605,0.039032,0.040901,0.043118667,0.045865667,0.048358667,0.051141333,0.054830667,0.058799,0.062632,0.066782333,0.071535,0.076301667,0.080636,0.085730667,0.090776,0.095369333,0.100078333,0.104878333,0.109684333,0.114038667,0.118751,0.122657333,0.127298,0.13299,0.137645,0.142137,0.147246,0.151814,0.157113333,0.161324333,0.165823667,0.171043667,0.175879333,0.180656667,0.184947333,0.19035,0.194382333,0.198518,0.201724333,0.205183,0.207574333,0.210430667,0.21235,0.214678667,0.216889667,0.217948667,0.220393333,0.223231333,0.225226333,0.226201667,0.227983667,0.228548667,0.230312333,0.230821667,0.230817667,0.229859,0.228653333,0.226713,0.224101,0.221099667,0.216927667,0.212065,0.207191667,0.201878667,0.196776,0.192384667,0.186931667,0.183051667,0.180126667,0.176759,0.172997333,0.167839,0.163809667,0.161006,0.157464667,0.153595,0.15064,0.147244,0.142994667,0.138897,0.135193,0.131970667,0.128655667,0.125524667,0.121072333,0.116172333,0.112522,0.109247667,0.106599667,0.102359667,0.098370333,0.09482,0.0913,0.087014,0.08347,0.080291667,0.077390333,0.072825,0.068403667,0.064514667,0.061784667,0.059844333,0.058407333,0.055398333,0.051627333,0.049292,0.047916,0.048006,0.046383333,0.044814,0.043292333
0.540626,0.541414333,0.542514,0.543043667,0.543778667,0.544616667,0.545315667,0.546047667,0.546635667,0.547581,0.547474667,0.547550667,0.547818333,0.548145667,0.548175667,0.547922,0.547791,0.547397667,0.546890667,0.546513,0.545940667,0.545361333,0.544646667,0.543641667,0.542755,0.541468667,0.538976,0.534740667,0.529530667,0.523888,0.519361667,0.516077667,0.51423,0.513095,0.512472,0.512235,0.511438667,0.511043333,0.510515,0.510398667,0.510543667,0.510852333,0.511445667,0.512075,0.512852,0.513709333,0.514433,0.514914667,0.51517,0.515820333,0.516240333,0.516467667,0.516518,0.516287667,0.516014333,0.515502667,0.514443667,0.513250667,0.511913333,0.510044,0.507253333,0.504178,0.50126,0.49734,0.492483,0.487040333,0.481092333,0.47498,0.468454333,0.462404,0.456824333,0.451088,0.444931667,0.437161667,0.426378667,0.411236333,0.389809333,0.360894,0.326537333,0.292045,0.260574667,0.234437,0.215402667,0.201527667,0.192033667,0.185234667,0.180596,0.177585,0.175911,0.175179,0.175148333,0.176080667,0.178180333,0.181853667,0.187309,0.194000333,0.201451333,0.209350667,0.217734667,0.226482333,0.235360667,0.24409,0.252925667,0.261659,0.269956333,0.278026333,0.286131,0.293924333,0.301255667,0.308305333,0.315647,0.322181667,0.327888667,0.333320333,0.338362667,0.343115,0.348073333,0.352719667,0.356700333,0.361054,0.364770667,0.368304667,0.371621333,0.375035,0.377432,0.380112,0.382512667,0.384577333,0.386583,0.388448,0.390027333,0.390991333,0.391539,0.392094333,0.392513333,0.3917,0.390840333,0.389182,0.387789,0.386356667,0.384841333,0.382823667,0.380831333,0.378864,0.376934667,0.374251,0.371019667,0.368062333,0.364885667,0.361143333,0.356752,0.352852,0.348516667,0.344518667,0.341058333,0.338413667,0.336818,0.335602,0.334527667,0.334474667,0.334906333,0.335193667,0.335293,0.335476,0.335228,0.334292333,0.332620667,0.329696333,0.325663333,0.319264333,0.310201333,0.296885333,0.279548,0.259332667,0.231993667,0.197626667,0.162793333,0.128563333,0.098817667,0.076614,0.060727667,0.051409,0.047046667,0.044046333,0.042664,0.041920667,0.042059667,0.042559,0.043458667,0.045429667,0.047208333,0.049672333,0.052437333,0.055357667,0.058936,0.062865,0.066958667,0.071564333,0.076224,0.081300667,0.086607,0.091990333,0.097700667,0.103211,0.108801667,0.114539667,0.120028,0.125547667,0.130933667,0.136154667,0.141523333,0.146852,0.152107,0.158082667,0.163833333,0.169851,0.175308667,0.181235333,0.186782333,0.192463333,0.197661333,0.203416667,0.208394333,0.213600667,0.218684,0.223566667,0.228160333,0.232016,0.235338667,0.238245667,0.240618667,0.243388333,0.244956667,0.246275,0.247872667,0.249433667,0.251090333,0.253117,0.254917,0.25635,0.257947667,0.258753,0.259395,0.259977333,0.259767,0.259599,0.258737,0.256644333,0.254155667,0.251227333,0.247537,0.242924667,0.238225,0.233122667,0.228225667,0.223554333,0.219150333,0.214566333,0.210432667,0.206848667,0.202834333,0.198384333,0.193807667,0.190355667,0.187066667,0.183489667,0.179505333,0.175354333,0.170901333,0.165892,0.161920667,0.158361667,0.154151333,0.149706667,0.14559,0.141389333,0.137094,0.132499667,0.127858,0.124189667,0.120142333,0.115433,0.110785333,0.106878667,0.102787667,0.098781,0.094275667,0.090250667,0.086267333,0.082728667,0.079013333,0.075387,0.071621667,0.068512,0.065970667,0.0639,0.061432667,0.059586,0.057571333,0.056548667,0.054937
0.517635333,0.518777333,0.520013,0.520967,0.522338333,0.522671333,0.523592,0.524601,0.525111667,0.525766333,0.525506,0.526147667,0.526400333,0.52652,0.526344667,0.526173,0.525956333,0.525715333,0.525645667,0.524782,0.524158667,0.523152333,0.522559333,0.522084667,0.520995667,0.519579667,0.517317,0.513036333,0.507722667,0.502106667,0.496968667,0.493366333,0.491958333,0.490890667,0.489839667,0.489575667,0.489176333,0.489022333,0.488212667,0.488092333,0.488228333,0.488567333,0.489478667,0.489996,0.490774,0.491212,0.492367,0.492734,0.493080333,0.493515333,0.493992333,0.494263,0.494225,0.494049667,0.493746667,0.493398,0.492536,0.491138333,0.489398667,0.48774,0.485005667,0.481742667,0.478876333,0.474685333,0.469566,0.463986333,0.458009333,0.451528333,0.445051333,0.439095667,0.432983333,0.427169667,0.420978333,0.413302333,0.402521,0.387572,0.366392,0.337520333,0.303870333,0.269386667,0.238399,0.212957333,0.194474667,0.181379333,0.172646333,0.166152667,0.161850333,0.159377333,0.157964333,0.157517667,0.157629667,0.158464333,0.160306333,0.163868667,0.169111667,0.175417,0.182518667,0.189959333,0.198064667,0.20642,0.214769,0.223215,0.231894333,0.240301,0.24847,0.256617667,0.264431667,0.271718333,0.278879333,0.286108333,0.293114667,0.299653333,0.305054,0.310406333,0.315501,0.320031667,0.324790667,0.329155667,0.333343667,0.337223667,0.341043333,0.344845333,0.347436667,0.350589333,0.353010333,0.355863333,0.358119,0.360533333,0.362666,0.364328333,0.365325,0.366491,0.367226667,0.367468333,0.367654667,0.367129667,0.366370333,0.364715,0.363279,0.361246,0.360014,0.358279,0.356362667,0.354297,0.352044667,0.349528667,0.34636,0.343863333,0.340686333,0.336232333,0.332083,0.327924333,0.323799,0.320453333,0.317016333,0.314853667,0.312625667,0.310865333,0.309948333,0.310088,0.310239333,0.310740333,0.310593667,0.310657,0.310380333,0.30969,0.308664333,0.305901333,0.301267333,0.295275667,0.286419667,0.273371333,0.256964667,0.237312667,0.211047667,0.179244333,0.146162333,0.114031667,0.088592333,0.067866667,0.054607333,0.047455667,0.044160333,0.041584667,0.039907,0.039765333,0.039732333,0.039832333,0.041109333,0.041989,0.043941333,0.045763667,0.047909667,0.050577333,0.053356333,0.056583667,0.059977,0.063985333,0.067975,0.072328667,0.077063333,0.081716667,0.086465,0.091682,0.096674333,0.101878,0.106804,0.111945667,0.116901,0.121412333,0.126566333,0.131822,0.136670333,0.141936333,0.147466,0.152528333,0.158506,0.163658,0.168352667,0.174287333,0.179158,0.18416,0.188846,0.194468667,0.198609,0.203373333,0.207760333,0.211717667,0.214967,0.218011,0.22041,0.222646333,0.224004667,0.225809,0.227758333,0.228606667,0.230096,0.231673667,0.233903667,0.235233333,0.236710667,0.237285333,0.23797,0.237669667,0.238268333,0.237441,0.236790667,0.234854333,0.233073,0.229343333,0.225694333,0.221789,0.216909,0.212414667,0.207624,0.202916667,0.199024667,0.194211,0.190318,0.186905667,0.183031,0.179239333,0.175050667,0.171057667,0.167418,0.164196,0.161181667,0.156862667,0.152965667,0.148694667,0.145138,0.141172,0.136717,0.132643333,0.12871,0.125308,0.121650667,0.117948667,0.113773667,0.109326667,0.104839,0.101150667,0.098255333,0.094379667,0.090384333,0.087272667,0.084162,0.080153333,0.076560667,0.073002333,0.069398333,0.065528667,0.062249,0.061657667,0.059943333,0.055817333,0.053781667,0.054610667,0.054011333,0.049565,0.048248667
0.532382,0.533310333,0.534561667,0.535274333,0.536126667,0.537588,0.538602,0.539754,0.540037333,0.541237667,0.541375,0.541719667,0.541961667,0.542093,0.54285,0.542480667,0.542369,0.541785,0.541260333,0.540766,0.539696,0.539257667,0.538094333,0.537472667,0.536694667,0.535112333,0.532558667,0.527495,0.520830667,0.514081,0.508402,0.504250667,0.502178333,0.500348667,0.499026333,0.498821,0.497795333,0.496948667,0.495871667,0.495861667,0.495995,0.496330333,0.497217667,0.498026667,0.498927333,0.499920333,0.501063333,0.501583,0.502473,0.503353667,0.503409667,0.50393,0.504297333,0.504053333,0.503400333,0.502955,0.502093,0.50078,0.499002333,0.496891333,0.494058,0.490566667,0.487170333,0.482446,0.476742667,0.470327333,0.463256667,0.455802,0.448438333,0.441730333,0.434977667,0.428666667,0.421623333,0.413374333,0.402029,0.385962667,0.363797333,0.334285667,0.299894333,0.265480667,0.234425333,0.208599,0.190025667,0.176522667,0.166997667,0.160271667,0.155244,0.152231667,0.1503,0.149441333,0.149178333,0.149746,0.151281667,0.154282,0.158754667,0.164258667,0.170670667,0.177450667,0.184909333,0.192532,0.200377333,0.208291333,0.216249,0.224391,0.231898,0.239398333,0.246469,0.253726667,0.260407333,0.266926667,0.273741,0.279763333,0.285185333,0.290143333,0.295216,0.299758,0.304171667,0.308945,0.313378333,0.317480667,0.321668333,0.325364667,0.328742333,0.332386333,0.335673333,0.339096333,0.341822667,0.344691667,0.347156333,0.348754667,0.350096667,0.351288,0.352256667,0.352931667,0.353429667,0.353263667,0.352570667,0.350522667,0.349224667,0.347001667,0.345074,0.343143,0.341566667,0.339731,0.337634333,0.335208667,0.332148333,0.328590333,0.324572333,0.320498333,0.316157667,0.311920333,0.307567,0.304232333,0.300448667,0.297516667,0.295597667,0.294705667,0.294118333,0.294634,0.295153667,0.295932,0.296196,0.296529667,0.296304333,0.295712,0.294771333,0.292667,0.288425,0.282742333,0.274653667,0.262451333,0.247012667,0.228558,0.204010333,0.173723667,0.143498333,0.113679,0.088557,0.067922333,0.055979667,0.049222,0.043958667,0.042518,0.040398333,0.039721667,0.039707,0.040095333,0.041004667,0.042433333,0.043731333,0.046025667,0.047809333,0.050372667,0.053075,0.056038,0.059429333,0.06352,0.066788,0.070835333,0.074992667,0.079280333,0.083907667,0.088460333,0.09273,0.097266333,0.101532,0.106217667,0.109757,0.114193333,0.118602,0.122486667,0.126484333,0.130647,0.134724,0.138925667,0.143151,0.147166,0.151120667,0.155469333,0.159527667,0.163840333,0.168192667,0.17247,0.177052,0.181116333,0.185315333,0.188658,0.192180333,0.195558,0.198374,0.201037333,0.203599667,0.205512667,0.208019667,0.209122,0.211598333,0.213261667,0.215187,0.217031,0.218980333,0.219353333,0.22114,0.221197333,0.221591333,0.220535333,0.219918,0.217988333,0.215335667,0.212115667,0.207902333,0.203575333,0.198441,0.192957333,0.188626333,0.183915,0.178183333,0.173676667,0.171036333,0.168689,0.165612,0.161896,0.157378,0.153607,0.151115333,0.148195667,0.145288667,0.142082333,0.138790667,0.135777,0.132087333,0.128329667,0.125504,0.122279333,0.11854,0.114932667,0.112347333,0.109128,0.105305333,0.101924,0.098832333,0.095218333,0.091478,0.087395667,0.083888333,0.079510667,0.076524333,0.073454,0.070741,0.067585,0.064756667,0.061895333,0.05962,0.05749,0.054816333,0.054105,0.053515333,0.052347333,0.047974333,0.045716667,0.046039667
0.509486667,0.510591333,0.512392,0.513000333,0.513759667,0.514683667,0.515718,0.516631,0.517011667,0.518369667,0.518320333,0.518507,0.518733667,0.519093,0.51894,0.518488333,0.518662,0.517971333,0.517674,0.516885,0.516265333,0.515300333,0.514769667,0.513860667,0.513298333,0.511635,0.508516667,0.50436,0.498870667,0.49274,0.487631333,0.483725333,0.481815667,0.480098333,0.479340667,0.479341667,0.478790667,0.478273667,0.477629333,0.477492333,0.477591333,0.478072333,0.478702333,0.479351,0.480196,0.480927667,0.481808333,0.481649333,0.482131667,0.482831333,0.483063667,0.483424,0.483879667,0.483611,0.483081667,0.482622,0.481503,0.480236667,0.478394667,0.476285667,0.473860333,0.470665333,0.467334,0.462822,0.457586667,0.45175,0.445179,0.438127,0.431322,0.425157333,0.418789333,0.412666,0.406113667,0.398385333,0.387281667,0.371614667,0.350068,0.320800667,0.286740333,0.252056667,0.221112667,0.195953,0.178027333,0.165086,0.156211667,0.149922667,0.145637667,0.143016,0.141582667,0.141015,0.140762667,0.141441667,0.143345,0.146574667,0.151461,0.157380333,0.164150333,0.170976333,0.178896667,0.187108333,0.195623667,0.203945,0.212139333,0.220722333,0.229021333,0.237340667,0.245203667,0.252763,0.260188333,0.267461333,0.274646667,0.281106667,0.287065667,0.292968,0.298257333,0.303110667,0.308193,0.312662667,0.316916,0.320944667,0.325075333,0.328688333,0.331863,0.335442667,0.338072,0.340649,0.342849667,0.345201333,0.347363667,0.349101333,0.35063,0.351751,0.352550333,0.353018,0.353180333,0.352944667,0.352330667,0.350721,0.350125667,0.349065333,0.347482,0.345184667,0.343479,0.341818,0.339616,0.336451667,0.333454667,0.33025,0.32715,0.323353,0.318625667,0.314450333,0.310165333,0.306018667,0.302648,0.299734,0.297096333,0.295841667,0.294864667,0.294963,0.294983333,0.295275333,0.295502667,0.294745,0.294364333,0.293937667,0.291922,0.289012333,0.284547,0.278156,0.269373667,0.257149333,0.240951667,0.222411333,0.198205,0.167012333,0.135484333,0.106122333,0.080849,0.062489333,0.050265667,0.044354333,0.041804,0.039132,0.038624667,0.037846333,0.037793,0.038178333,0.038927667,0.039926667,0.041328,0.042979,0.045127,0.047278667,0.049323333,0.052204667,0.055296,0.05865,0.062336333,0.066212667,0.07067,0.074737667,0.079238667,0.084115333,0.088965667,0.093640333,0.098496667,0.103560333,0.108534,0.113069667,0.118100667,0.123140333,0.128624333,0.133927667,0.139339,0.144700667,0.150160333,0.156319667,0.161735,0.166863667,0.172521,0.177330333,0.182749,0.187941667,0.193183333,0.197547,0.202597,0.206389667,0.21074,0.212722,0.215824333,0.217819667,0.219794,0.221031333,0.222343333,0.224599,0.226069,0.227848,0.229335333,0.230391667,0.232109667,0.232394,0.232786667,0.232977,0.232363667,0.232715333,0.23147,0.229326667,0.226983667,0.224240333,0.220846,0.216949667,0.212965,0.207864,0.203459667,0.199619333,0.195088667,0.191032667,0.187987333,0.184119667,0.179097,0.174676667,0.170685667,0.166379,0.163054333,0.159668667,0.155493667,0.151478,0.146482,0.142251333,0.138369,0.133714333,0.129663333,0.125869333,0.121421,0.118111,0.114619667,0.109871333,0.105379667,0.102769667,0.098678,0.094220333,0.091659,0.087208333,0.083912,0.080793333,0.075907,0.071843,0.070128,0.067338667,0.064115333,0.061923333,0.060273,0.057131333,0.052561667,0.051432667,0.050737667,0.050119333,0.048401,0.048354667,0.04655
0.544858667,0.545943667,0.547015333,0.548318667,0.548947667,0.550058,0.550709667,0.551482667,0.552331,0.552949667,0.553422,0.553482333,0.554033333,0.554132333,0.554319,0.554012667,0.553758667,0.553566667,0.553003333,0.552522,0.551654667,0.551138333,0.550788,0.549836,0.548853,0.546953667,0.544392333,0.539793333,0.533825667,0.527471667,0.522037333,0.518279333,0.516149667,0.514588,0.513655,0.513417,0.512623667,0.511639,0.511272,0.511075667,0.511347,0.511655333,0.512328333,0.513247,0.514241333,0.515456667,0.516186333,0.5168,0.517254333,0.518118667,0.518708667,0.518949667,0.519143667,0.518873667,0.518659,0.518147,0.517055667,0.515800333,0.514153333,0.512161667,0.509251,0.506219667,0.502811333,0.498286333,0.493079,0.486904667,0.480444333,0.473361,0.466548333,0.459754667,0.453336,0.446732,0.439821667,0.431803667,0.420512667,0.404871333,0.382568333,0.353009333,0.318299333,0.283512667,0.251854667,0.225701667,0.206798333,0.192926667,0.18356,0.176646667,0.172039667,0.169147333,0.167634667,0.166974,0.167027333,0.168032,0.169905667,0.173439333,0.178622,0.184813667,0.191898333,0.199379,0.20739,0.215578667,0.224119667,0.232551667,0.240845667,0.249019333,0.257089667,0.264674333,0.272295333,0.279593667,0.286496333,0.293291333,0.299869333,0.305963333,0.311406333,0.316865,0.321582667,0.326258,0.330853,0.335321333,0.339365,0.343704,0.347794333,0.351796667,0.355357333,0.358938333,0.361942,0.365022333,0.367912,0.370396333,0.372722667,0.374494667,0.376125333,0.377401,0.378324667,0.379091667,0.379337,0.378611333,0.377405667,0.375481,0.373333333,0.371338667,0.369192333,0.367539,0.365842,0.364018,0.361797,0.359255333,0.355936667,0.352368,0.348656,0.344699667,0.340434,0.336379,0.332670667,0.328687333,0.324792667,0.322058,0.320597667,0.319490667,0.318937,0.318959667,0.31959,0.320092667,0.320573,0.320647667,0.320511333,0.319934,0.318775,0.316222333,0.312566,0.306495667,0.297265,0.284435,0.267977667,0.248401333,0.221404,0.189065333,0.156005,0.124472667,0.096837333,0.076424667,0.062434667,0.054429333,0.049844667,0.047441667,0.045939,0.045304,0.045409,0.046033667,0.047001667,0.048682333,0.050431333,0.052466667,0.055243667,0.057815,0.061144,0.064633,0.068482,0.072301,0.076879,0.081475,0.086431,0.091267333,0.096209333,0.101315,0.105883,0.111122667,0.115706,0.120465,0.125178667,0.129211,0.133531,0.137738333,0.142074,0.146499,0.151300667,0.155393333,0.160156667,0.164596,0.168972667,0.173408333,0.177738333,0.181870333,0.186645667,0.190976667,0.195765333,0.200200667,0.204092,0.207589667,0.210920667,0.213937667,0.216535667,0.218631,0.220756667,0.222569667,0.224212,0.226322333,0.228271667,0.229818333,0.231821333,0.233998,0.235606,0.236621333,0.237646,0.238471,0.238164,0.238526667,0.237478333,0.235664333,0.233075333,0.229695333,0.225251667,0.220365,0.215113333,0.209406667,0.204176,0.198897,0.193758333,0.189902,0.186934667,0.183586667,0.179940667,0.175942,0.171466667,0.167979667,0.165112,0.162156,0.159333,0.155957333,0.152299667,0.148768667,0.145349,0.141878,0.138217,0.134448333,0.130756333,0.127390667,0.124145667,0.120199333,0.115776333,0.112146667,0.108589333,0.104595333,0.100169333,0.096131,0.092679333,0.090075667,0.086406667,0.082079333,0.078147667,0.075066667,0.071367333,0.068512333,0.06605,0.063677667,0.061101667,0.060005,0.058332,0.055706667,0.052963667,0.052426333,0.051609667
0.556262,0.557594667,0.559225,0.560438667,0.561296667,0.562256,0.563266333,0.564015667,0.564728,0.565607333,0.565821333,0.565995,0.566469333,0.566787,0.566838333,0.566542,0.56628,0.56555,0.565206667,0.564686333,0.563933,0.563383333,0.562447333,0.561621,0.560376333,0.558333333,0.555340333,0.550271667,0.543614333,0.536383667,0.530384,0.526332333,0.524032,0.522526333,0.521764667,0.521887,0.520776333,0.519844333,0.519165333,0.519317667,0.519763333,0.520393,0.521228333,0.522020333,0.523051,0.523829,0.524693,0.5253,0.525973,0.526861333,0.527357333,0.52774,0.527750667,0.527391,0.526974667,0.526415,0.525140333,0.523639667,0.521782333,0.519411333,0.516329333,0.512653667,0.508875,0.503920667,0.498055667,0.49115,0.483782,0.476189667,0.468531667,0.460983667,0.453900333,0.446781333,0.439278667,0.429812667,0.417022667,0.399482,0.374791667,0.342088667,0.304071,0.266491667,0.233147667,0.206404,0.187333667,0.173630333,0.164507333,0.158133333,0.153904,0.151588,0.150401667,0.150047667,0.150364667,0.151439667,0.153537,0.157352,0.162659667,0.169263,0.176743667,0.184702,0.193226,0.201938667,0.210917667,0.219963,0.228905333,0.237813,0.246405,0.254935667,0.263424,0.271451333,0.279224,0.286616,0.294009667,0.300919,0.307020667,0.312917667,0.318269333,0.323519,0.328705333,0.333770333,0.338502,0.342952667,0.347098333,0.351089,0.354843333,0.358695333,0.361781,0.364981,0.367781,0.370334667,0.372879333,0.374876667,0.376718333,0.378009,0.378673,0.378816667,0.379025,0.378635667,0.377535667,0.375746667,0.373862667,0.371597,0.369609333,0.367882,0.366041,0.363498333,0.361026333,0.357946,0.354454,0.350725,0.34671,0.342316,0.337442667,0.333163667,0.328776333,0.324136,0.319993667,0.316918,0.314834667,0.313664,0.312563333,0.3125,0.312904667,0.312999333,0.313425,0.313445667,0.313007,0.312265333,0.310179333,0.307247,0.302308333,0.295424,0.285775,0.271572667,0.253899333,0.233495667,0.20593,0.172686667,0.139233333,0.108299667,0.082272,0.063562667,0.050702,0.044316,0.040539333,0.039044,0.037520667,0.037299,0.037229667,0.037799667,0.038665,0.039743667,0.041576,0.043051667,0.045180333,0.047347667,0.050275333,0.053274333,0.056644667,0.060369,0.064354333,0.068681667,0.073188,0.078039333,0.082537667,0.087839667,0.092538667,0.097523333,0.102797667,0.107734667,0.112466,0.116895333,0.121574333,0.126449333,0.131239,0.136334,0.141674333,0.146814333,0.152090667,0.157381,0.162432,0.167675667,0.172608333,0.177448,0.182597,0.187897667,0.192785333,0.197342667,0.201736333,0.205758667,0.209073333,0.212322667,0.214690333,0.217411,0.218958333,0.221075667,0.222776,0.224584,0.225977333,0.228612667,0.230508667,0.232268,0.233968667,0.235044667,0.235344667,0.236332333,0.236209333,0.235627333,0.234699333,0.232635667,0.229513667,0.226584667,0.222394,0.217319,0.212080667,0.206897,0.201606,0.195853333,0.190720667,0.186654667,0.183254667,0.179631,0.175975667,0.171354,0.166761667,0.163250667,0.160008,0.156487667,0.152445333,0.149026,0.145516667,0.141014,0.136768667,0.133346667,0.129509667,0.125540333,0.121592667,0.117541667,0.113858667,0.109991667,0.106353667,0.102708333,0.098808333,0.094645333,0.091191333,0.087428,0.083941,0.080568667,0.076775,0.073023,0.069401,0.066953667,0.063619667,0.060814333,0.058256333,0.0565,0.054516,0.05243,0.050735,0.049370667,0.048516,0.047661333,0.046999
0.502733667,0.504200667,0.505974667,0.507338667,0.508225333,0.50911,0.509956,0.510775,0.512006,0.512732667,0.512437,0.512396333,0.512806333,0.512914667,0.513024,0.512733333,0.512633667,0.51176,0.511694667,0.511456,0.510687333,0.509668,0.508708333,0.507738,0.506675667,0.504912667,0.502043,0.497250333,0.491216667,0.484628333,0.479726667,0.476213667,0.473741667,0.472577,0.472304333,0.471951667,0.471032,0.470455,0.469886333,0.469764,0.470062333,0.470680333,0.471251,0.471667,0.472609,0.473341333,0.473688667,0.474220333,0.474884333,0.475314333,0.475573333,0.476089,0.475896,0.475623,0.475163333,0.474769667,0.473535,0.472193667,0.470343,0.468002,0.465271667,0.461922,0.458592,0.454119333,0.448685333,0.44272,0.435879667,0.428911,0.422198667,0.415899333,0.409837,0.403788,0.397154667,0.38885,0.377413667,0.361422333,0.339860667,0.310318667,0.276346333,0.242771667,0.21323,0.189498,0.172515667,0.160471333,0.152364333,0.146639333,0.142894333,0.140615333,0.139263667,0.138794,0.138724333,0.139731333,0.141579,0.144929333,0.149743333,0.155663667,0.162353,0.169249667,0.176838333,0.184513,0.192626333,0.200756,0.209226333,0.217242667,0.225000333,0.232971333,0.240734667,0.248109,0.255057,0.261952667,0.268807333,0.274910333,0.280988,0.286408667,0.291347333,0.295935667,0.300986667,0.305172667,0.309365,0.313095333,0.316839333,0.320655333,0.323645333,0.327043,0.329506667,0.332039333,0.334104333,0.336251667,0.338474333,0.340376,0.341642333,0.343139333,0.343448667,0.343591333,0.343795333,0.343249,0.342808667,0.341416,0.340309333,0.338770667,0.337118667,0.335024,0.333653333,0.331557333,0.329427,0.326189,0.323058,0.320094333,0.316658,0.312969667,0.308630333,0.304389,0.300386333,0.296504,0.292826333,0.290152,0.287645667,0.286865333,0.286182333,0.286273667,0.286094667,0.286191,0.285834667,0.285962667,0.285172667,0.283789333,0.281753333,0.278931,0.274711333,0.268236,0.259427,0.247264667,0.232230333,0.215223,0.193674333,0.163336667,0.132199,0.103817,0.080817667,0.063716667,0.052555333,0.047015,0.043525333,0.042567333,0.041449667,0.040792667,0.041200667,0.041635667,0.041973333,0.043070333,0.044706333,0.046245333,0.048112667,0.050531667,0.052734333,0.055697667,0.058798,0.061888667,0.065738333,0.069445333,0.073617667,0.077614667,0.082125,0.087127,0.091716667,0.095921333,0.100935667,0.105668,0.110642,0.115152667,0.11974,0.124798,0.129749667,0.135242,0.140007667,0.145952333,0.150829,0.156326,0.161987667,0.167029333,0.172442,0.177090667,0.182028333,0.187071667,0.192630667,0.196519667,0.200583,0.204924,0.207248,0.210237,0.213186667,0.214797333,0.216793,0.217572,0.21885,0.220502,0.222639,0.223947333,0.224966667,0.22641,0.227718667,0.228362,0.228154667,0.228698333,0.228355,0.227747333,0.227169333,0.224578667,0.222457,0.219978333,0.216459667,0.212047333,0.207556,0.203572,0.199219333,0.194767667,0.190517333,0.186461667,0.18307,0.179562333,0.175052333,0.170846667,0.167241,0.163329333,0.159337,0.155585333,0.150865667,0.146741667,0.143382333,0.139619333,0.136194667,0.132285,0.127923667,0.123883,0.119946,0.116811667,0.113241333,0.109140667,0.104755,0.100467333,0.097381667,0.093751,0.090054,0.086978333,0.083635,0.078629,0.076203,0.074478667,0.070931333,0.066051667,0.063074333,0.061170333,0.058252667,0.055495,0.054295667,0.054131667,0.052031667,0.048059667,0.045935667,0.046722,0.045694333
0.509062667,0.510257333,0.511790333,0.512798333,0.513483,0.514135,0.515123,0.516253333,0.516929333,0.517308667,0.517693333,0.518095667,0.518285667,0.518394667,0.518555333,0.518362,0.518424,0.517996333,0.517566,0.516972667,0.516046,0.515273333,0.515142,0.514257,0.513289333,0.512450333,0.509915333,0.505879333,0.500908667,0.494980667,0.490247333,0.487078667,0.485391667,0.484335333,0.483665667,0.483658667,0.482928,0.482933,0.482247333,0.482217333,0.482710333,0.48312,0.483684333,0.484251333,0.484840333,0.485472667,0.486299333,0.486568333,0.486870667,0.487770333,0.487817333,0.488227,0.488336,0.488190333,0.487839,0.487308,0.486211,0.485069,0.483481667,0.481748,0.479197333,0.476174667,0.472889667,0.468767667,0.463975333,0.458414333,0.452105,0.445766667,0.439566333,0.433698333,0.427765,0.422087667,0.416069333,0.408626,0.397954,0.383041,0.361894667,0.333078,0.299754667,0.266466333,0.236213,0.211468,0.19389,0.181468,0.172819,0.166698333,0.162426333,0.160012333,0.158388333,0.157771,0.157734667,0.158577333,0.160404667,0.163713333,0.168639333,0.174452667,0.181846333,0.189137667,0.196841333,0.204973333,0.213350333,0.221629,0.230093333,0.238305,0.246503,0.2547,0.262137667,0.27002,0.277314333,0.284463,0.291498667,0.29814,0.303785333,0.309151667,0.314192333,0.318978,0.323607667,0.327953333,0.331973667,0.336122667,0.339673667,0.343166,0.346002,0.348984667,0.351525667,0.354173,0.356086667,0.358795,0.360759333,0.361973667,0.362868333,0.363887333,0.364636667,0.365264,0.365578333,0.365197667,0.364597333,0.363632333,0.362518333,0.361251667,0.360069333,0.358024,0.356161,0.353926333,0.351848333,0.34941,0.346192333,0.343337333,0.339585333,0.336128,0.331747,0.327885667,0.323356,0.319361333,0.315635333,0.312851,0.310725,0.309370667,0.308567333,0.308461667,0.307946333,0.308188333,0.308104,0.30848,0.307996667,0.306978667,0.305885,0.302665333,0.298693333,0.291815667,0.283231,0.270601,0.254358667,0.235234,0.209086,0.177641,0.147256,0.116863667,0.090970667,0.071966667,0.057911667,0.051788,0.047306,0.045184667,0.043760333,0.043342667,0.043625333,0.043956,0.045034667,0.045909333,0.047696,0.049641667,0.051978667,0.054451,0.057515,0.060601667,0.064211333,0.067662,0.071703667,0.07591,0.080336,0.08499,0.089782,0.094919667,0.099794,0.105013,0.109898333,0.115232,0.119703333,0.124911,0.130189333,0.134927667,0.140352,0.145467667,0.150931,0.157231667,0.162676667,0.1676,0.173367667,0.178809333,0.183771,0.188962333,0.194580667,0.199808,0.204304,0.209196667,0.213186333,0.217273,0.220636333,0.223449333,0.226569667,0.228534333,0.230093,0.232139333,0.23336,0.234519333,0.235742667,0.237438667,0.238375333,0.239151333,0.240243333,0.240841,0.241701667,0.241216333,0.241446,0.240516667,0.239208333,0.237682,0.235902333,0.232722,0.230063667,0.226865,0.222851,0.219177333,0.215072,0.210587333,0.206681333,0.202748333,0.198823333,0.195115333,0.191211667,0.186204,0.182618333,0.179312333,0.175584333,0.171915,0.167992667,0.163553,0.159984333,0.155155667,0.150233,0.146865667,0.142995667,0.138774667,0.134171667,0.130089,0.126916333,0.123249667,0.118829333,0.114318333,0.109724333,0.106593,0.103625,0.099477667,0.096972,0.093720667,0.088873,0.084195,0.081123333,0.077801,0.073700333,0.070815,0.068419667,0.066319,0.063995,0.061215,0.058066333,0.055971667,0.054375,0.053132667,0.052220667
0.554746333,0.556385667,0.558069333,0.559696333,0.561084,0.562349667,0.563606667,0.564175,0.564940667,0.566121333,0.565945667,0.565709,0.566501667,0.566581333,0.566728,0.566556667,0.565747667,0.565582,0.564991333,0.564172667,0.563728333,0.563192333,0.561841333,0.560548333,0.559362667,0.557426667,0.554394,0.549332,0.542241667,0.534617333,0.529068,0.524946,0.523062,0.521568667,0.520599333,0.520558,0.519469667,0.518945,0.518344333,0.518226333,0.518364667,0.519169667,0.520089,0.520586,0.521431,0.522323667,0.522937333,0.523052333,0.523467667,0.52455,0.524894,0.525352,0.525082333,0.524713333,0.524463,0.523744667,0.522666,0.520939333,0.519183333,0.516561667,0.513274333,0.509525667,0.505565333,0.500057,0.494329,0.487599,0.479923,0.472325333,0.464471333,0.457397667,0.450428,0.443897,0.436728,0.42734,0.414466333,0.396868,0.372856,0.340851,0.304117333,0.268292667,0.237017333,0.211931667,0.194509333,0.182285667,0.173919,0.167877333,0.163776333,0.161263,0.159998,0.159501,0.159471,0.160192333,0.161932333,0.165378333,0.170215,0.175986,0.182928,0.190190667,0.198037333,0.206025333,0.214326667,0.222900333,0.231483333,0.239933667,0.248209333,0.256769,0.264926333,0.272754667,0.280553667,0.288267,0.295824667,0.302636,0.308856,0.314770667,0.320132333,0.325161,0.330844,0.335505,0.340242667,0.344488667,0.348046,0.351941667,0.355182667,0.358991333,0.361914,0.364840333,0.366932333,0.369502,0.371476,0.373412667,0.374963,0.375905667,0.376787,0.377082333,0.377512667,0.376969333,0.376661,0.374823,0.373687,0.372301333,0.370479333,0.368487667,0.366586667,0.364072333,0.361701,0.35846,0.355055333,0.351661333,0.347839333,0.343395667,0.338762,0.334420667,0.329380667,0.324948333,0.321293333,0.318592667,0.315699333,0.314531,0.313572,0.313211333,0.313376,0.313359,0.313256,0.313379,0.312731,0.310987,0.308468,0.306110333,0.300843667,0.294305333,0.284467667,0.271029,0.254824,0.236330667,0.212643667,0.180976667,0.150028,0.121923,0.098411667,0.082196333,0.070809,0.064996667,0.061606,0.060037333,0.058352,0.058085667,0.057968333,0.058467333,0.059361,0.060500333,0.062142667,0.063831,0.065949,0.068115333,0.070560667,0.073337,0.076550667,0.079896333,0.082897,0.086819667,0.090811333,0.095124667,0.099053,0.103398667,0.107854,0.112322,0.116887333,0.121664,0.126150333,0.130648,0.135084667,0.139558667,0.144565,0.150344667,0.155423,0.160680333,0.165441667,0.170942667,0.176696333,0.181831333,0.186735667,0.192075,0.197083333,0.202063667,0.207207333,0.211958,0.215781,0.219749667,0.222657,0.225199,0.227984,0.23014,0.231795667,0.232865667,0.234313667,0.234936333,0.236429667,0.237977667,0.238566,0.240182667,0.241215,0.241732667,0.242078,0.242674333,0.242351,0.240816,0.24005,0.238304667,0.236703,0.233440667,0.229639,0.226018667,0.221906,0.217550667,0.213652,0.209861667,0.205845333,0.201440333,0.198092,0.194793333,0.190411333,0.185282,0.181327,0.178766667,0.175409333,0.171383333,0.167045333,0.163475,0.159431333,0.155674667,0.151110333,0.146481667,0.142728667,0.138152,0.134196,0.130371667,0.126714667,0.122865,0.119488,0.116777667,0.113650667,0.110500333,0.105835333,0.102619,0.09894,0.095998667,0.092445,0.089092333,0.085254,0.082543333,0.080632,0.077758,0.075422333,0.073338,0.072414667,0.069487333,0.066675667,0.06572,0.064551,0.062634,0.061602
0.506271,0.507747667,0.509380333,0.510825,0.511837,0.512789333,0.513791,0.514789667,0.515386,0.516354333,0.516899667,0.516963333,0.517506333,0.517729,0.517754333,0.517602333,0.517726667,0.517394333,0.516758333,0.516230667,0.515565,0.514875,0.514125667,0.513106333,0.511976333,0.510215,0.507530667,0.502779333,0.496592333,0.489848333,0.484162,0.480524,0.478309667,0.476568,0.475806667,0.475372,0.474429667,0.473717667,0.473223,0.473217333,0.473461,0.473977333,0.474754333,0.475507333,0.476455,0.477683333,0.478225,0.478639,0.479309,0.480234333,0.480400667,0.480667333,0.481047,0.480905333,0.480672,0.480053667,0.478977333,0.477608333,0.475936667,0.473845667,0.470892333,0.467562333,0.464058667,0.459418,0.453742,0.447457,0.440704333,0.433519333,0.426565333,0.419771333,0.413508333,0.407277,0.400362333,0.391957333,0.380393333,0.364658,0.342432667,0.313417,0.279848333,0.246811667,0.217015333,0.192708,0.175429667,0.162784333,0.154129667,0.147893,0.143634667,0.141015667,0.139509,0.138791667,0.138733,0.139536667,0.141312333,0.144389,0.148948333,0.154683,0.161151667,0.167945333,0.175288,0.182937,0.190663333,0.198505667,0.206230667,0.213881333,0.221560667,0.228774,0.236126667,0.243112333,0.249703,0.256278,0.262900667,0.268841,0.274047,0.279340333,0.283958667,0.288448,0.293169333,0.297575333,0.301779333,0.306036333,0.309715333,0.313323333,0.31673,0.320212,0.323296667,0.326300667,0.328903,0.331117,0.333268667,0.335059667,0.336934333,0.338294667,0.338740667,0.339213667,0.339481333,0.33915,0.338162333,0.33665,0.334967667,0.333333667,0.331588333,0.329803,0.328079333,0.326104,0.323950667,0.321238,0.317957667,0.314811667,0.311443333,0.307746333,0.303271333,0.299302667,0.295415,0.291508,0.288168333,0.285438333,0.283980333,0.282865667,0.282268333,0.282143,0.282703333,0.282934,0.283305333,0.283538,0.283238667,0.282820667,0.281536,0.279064333,0.27525,0.269137,0.260597,0.248298667,0.232623,0.214575,0.190213333,0.160947333,0.131168,0.102654667,0.078673,0.061057333,0.048613,0.041842667,0.038189667,0.036081333,0.034893333,0.034396667,0.034291333,0.035020333,0.035607,0.036939667,0.038453,0.040180333,0.042048333,0.044511,0.047023,0.049991667,0.053171,0.056609,0.060314333,0.064293333,0.068459,0.072798667,0.077173,0.081566333,0.085888667,0.090399333,0.094609667,0.098344667,0.102853667,0.106942,0.110948,0.115234667,0.119121667,0.123485,0.127661667,0.131772333,0.136212333,0.140374333,0.144711667,0.149222667,0.152945667,0.157571667,0.161625,0.166016,0.170052333,0.174102,0.177958667,0.181407,0.184807667,0.187191333,0.189865333,0.192265667,0.193928333,0.195515333,0.197252,0.199018333,0.200994,0.202763,0.20498,0.206663,0.20777,0.208666,0.209412333,0.209937333,0.210470667,0.209412,0.208512667,0.207009333,0.204099333,0.201033,0.197521,0.193481333,0.188906333,0.183861,0.179389333,0.174889333,0.170227,0.166583333,0.163501,0.160740667,0.157579667,0.153346333,0.149585333,0.146351333,0.143477333,0.140258,0.137236667,0.134420333,0.130681,0.127113333,0.124322333,0.121147667,0.117631667,0.114464667,0.111079,0.107582667,0.104237,0.100949,0.097378667,0.094428,0.091072667,0.087067333,0.083216333,0.080385333,0.076780667,0.073091333,0.069718,0.06731,0.064244667,0.061214333,0.058008,0.055243,0.052880333,0.051031,0.049265333,0.047490667,0.045836333,0.044707,0.042830667,0.041803333,0.041754
0.522192667,0.523875667,0.525947333,0.527492333,0.528193667,0.528490667,0.529931333,0.530917,0.531603333,0.532827,0.532769,0.532693,0.532846667,0.533237667,0.533464,0.532752333,0.532135,0.531933333,0.532028333,0.531318333,0.530340333,0.52999,0.528997,0.528061667,0.527150333,0.524704667,0.521771,0.516911333,0.510885333,0.504423,0.499448667,0.495321,0.493107333,0.491676,0.491158667,0.491124667,0.489828,0.488919,0.488271,0.488398333,0.488606333,0.489095333,0.490013,0.490523,0.491161333,0.491653,0.492224667,0.492937,0.493257,0.493689667,0.494019667,0.49447,0.494604,0.494301333,0.494297,0.493533667,0.492137667,0.490967667,0.489203,0.486853333,0.483824,0.480326333,0.476866333,0.472394333,0.467201,0.460758667,0.454022333,0.447146667,0.44011,0.433571667,0.427248,0.421265,0.414713,0.406178333,0.394815333,0.379111333,0.356931333,0.326920333,0.291922,0.257103,0.226356667,0.201555,0.183892,0.171282667,0.162396333,0.156081,0.151636333,0.149061,0.147517667,0.146619667,0.146460333,0.147027333,0.14878,0.152192667,0.157012333,0.162564,0.169454,0.176471333,0.184307333,0.192191667,0.200395333,0.208720667,0.217170333,0.225299,0.233259667,0.241637333,0.249487333,0.257181,0.264466,0.271621333,0.278358667,0.284959333,0.290967,0.296460667,0.301791,0.306776,0.311995333,0.316390333,0.320585667,0.324943333,0.328738333,0.332398,0.335647333,0.339277333,0.342049667,0.344758333,0.346549333,0.349096333,0.351434667,0.353277,0.354352667,0.355621333,0.356222667,0.356903667,0.35717,0.356743333,0.356561,0.355443667,0.353890333,0.352247,0.35063,0.348825333,0.347521667,0.345245667,0.342835333,0.340064667,0.336657,0.333531,0.330245667,0.326244333,0.321636667,0.317679,0.31282,0.308877667,0.305218667,0.302453333,0.300294667,0.299631333,0.298596333,0.298928667,0.299174333,0.299412667,0.298728,0.298876667,0.297832,0.297199333,0.294807667,0.292211667,0.287926667,0.281474,0.272551,0.260633333,0.245362,0.229310667,0.207111667,0.175588333,0.143491333,0.113253667,0.088207333,0.070179,0.058288333,0.051581333,0.047513667,0.045727333,0.044621,0.044211333,0.044042667,0.044110333,0.045664667,0.046484667,0.047757667,0.049495333,0.051991667,0.054121667,0.056821667,0.059599333,0.063209333,0.06615,0.070168667,0.074311333,0.078248333,0.082742333,0.087322,0.092127333,0.096938667,0.101834333,0.10698,0.111540667,0.116537333,0.121260333,0.126252333,0.131387,0.136407333,0.142077,0.147709667,0.153092667,0.158836667,0.164119333,0.17004,0.174643667,0.180528667,0.185434,0.191114667,0.195977,0.201042667,0.206290667,0.210542,0.21453,0.218187,0.221134333,0.223953333,0.226351333,0.228134667,0.229176,0.231607333,0.232717667,0.233917333,0.235394667,0.237121333,0.238192667,0.239872333,0.240866333,0.241702667,0.241491333,0.240975333,0.240579,0.238943,0.237249667,0.235453333,0.231725,0.228089,0.224631,0.220039,0.215607667,0.211129333,0.207253667,0.202945333,0.1984,0.194481667,0.190595333,0.186875667,0.181444667,0.177404667,0.174332667,0.170064333,0.166263667,0.162755333,0.158603667,0.154404,0.148660333,0.144227,0.140686,0.136657,0.133169,0.129511667,0.125155667,0.119692,0.115812333,0.113602,0.110613333,0.106885667,0.101968,0.097893333,0.094301333,0.091091,0.087808,0.083501,0.079962,0.077103333,0.073769667,0.069729333,0.066409667,0.064076333,0.062245,0.059670333,0.057252667,0.056055667,0.056961,0.056422667,0.053348667,0.050472667
0.511025333,0.511860333,0.512899667,0.513672333,0.514091333,0.514902333,0.515570333,0.516707667,0.516753667,0.517588333,0.518248333,0.518761333,0.518746333,0.518844333,0.519281,0.519082667,0.518807333,0.518187,0.517765,0.517152,0.516628,0.516281333,0.515790333,0.515086,0.513945667,0.512486667,0.510309,0.505821333,0.499814,0.493657333,0.488965667,0.485204667,0.483534667,0.482505333,0.481645333,0.481374667,0.480894,0.480709333,0.480098333,0.480031667,0.479912,0.480578,0.481537,0.482500667,0.482649667,0.483238667,0.483899667,0.484507,0.485059,0.485342667,0.485802,0.486558667,0.486581333,0.486502333,0.485994,0.485286333,0.484213,0.4831,0.481314333,0.479175667,0.476636667,0.473365,0.470542333,0.465863333,0.460573333,0.454906,0.4486,0.441737667,0.435264333,0.429106333,0.423133333,0.417759333,0.411590667,0.403592667,0.392656667,0.377088333,0.356045333,0.327382,0.293853333,0.260721333,0.230936667,0.206936667,0.189819667,0.177335333,0.168738667,0.162828333,0.158590667,0.156110667,0.154532,0.153746333,0.153734,0.154382,0.155974667,0.159387667,0.164173,0.169921667,0.176720333,0.183789333,0.191550667,0.199517333,0.207554667,0.215878333,0.223906667,0.232376,0.240429,0.248168333,0.256300333,0.263831667,0.271049667,0.278321,0.28541,0.291873667,0.297629,0.303470667,0.308608333,0.313333667,0.317976,0.322609,0.326957,0.330473333,0.334139333,0.337553667,0.340678667,0.344209333,0.346418,0.348969333,0.350986333,0.353206,0.355167333,0.356727,0.358013667,0.358929667,0.359569,0.360330333,0.360622333,0.360312333,0.360074,0.358185,0.357667667,0.356458333,0.355492333,0.353609333,0.351533667,0.349175667,0.347174667,0.344534667,0.341243667,0.338759,0.335036667,0.331109,0.326998,0.322537,0.318375,0.314208333,0.310615333,0.307648333,0.305423333,0.304465333,0.303366333,0.302681333,0.302520667,0.303001333,0.303424,0.303539667,0.302959667,0.302415,0.30004,0.298080333,0.293602667,0.287290667,0.278299,0.265296,0.24847,0.228722333,0.202919,0.173322,0.143136333,0.115073,0.090442333,0.072509333,0.059246333,0.052620333,0.048190667,0.046253333,0.044807,0.044581333,0.044429667,0.044882333,0.045584667,0.047029667,0.048462,0.050207333,0.052481,0.055012667,0.057936333,0.060717333,0.064268667,0.067578667,0.071401,0.075432667,0.080045333,0.084108,0.088709333,0.093511,0.097880333,0.103089,0.107976667,0.112748,0.11778,0.123029667,0.127408,0.133016333,0.137980667,0.14316,0.148689,0.154476,0.160295,0.165848,0.170339667,0.176064333,0.180933,0.186582333,0.191829333,0.196671333,0.201208667,0.206844333,0.210657333,0.215052,0.217984,0.221292,0.223348333,0.22625,0.228277333,0.230208,0.231459667,0.232606333,0.233731667,0.235514333,0.236682333,0.237502667,0.238238667,0.239008,0.239239,0.239266667,0.238877333,0.238525,0.237153333,0.235400333,0.233042,0.230654333,0.227521333,0.223944,0.220137667,0.216420333,0.212846333,0.208817667,0.204764,0.200803,0.19681,0.192872667,0.189210333,0.184797667,0.180565667,0.177305333,0.173349,0.169434,0.165640667,0.161083667,0.156931667,0.153178667,0.148430333,0.143402333,0.140164667,0.136938333,0.132863,0.127758667,0.123938667,0.119832667,0.116349667,0.112745,0.109051667,0.104814,0.101517667,0.099175667,0.094950333,0.092136,0.088102,0.084020667,0.079850333,0.076790333,0.073010667,0.069335333,0.066647667,0.065132333,0.063327333,0.060374,0.057513333,0.05523,0.054959,0.055101333,0.053543333
0.493661333,0.495273,0.497066667,0.498612667,0.499455333,0.500031,0.501435333,0.502033333,0.502251333,0.503436333,0.503787,0.503959333,0.503992333,0.5044,0.504566,0.504244333,0.504224667,0.503712,0.503467,0.502648333,0.501911333,0.501383333,0.500350667,0.499311,0.498220333,0.496675,0.493885667,0.489048667,0.482572333,0.476205667,0.470913667,0.466926,0.464806333,0.46377,0.463061667,0.462748333,0.462130333,0.461667667,0.460912667,0.4609,0.461354667,0.461678333,0.462522667,0.463154,0.463976,0.464695333,0.465442667,0.465694667,0.465993333,0.466775667,0.467161667,0.467515667,0.467972,0.467676667,0.467147,0.466497333,0.465285,0.463900333,0.461933,0.459586333,0.456586333,0.453270667,0.449706333,0.445080333,0.439566333,0.433267667,0.426139333,0.418879667,0.411817667,0.405355333,0.398962,0.392616667,0.385720667,0.377277,0.365685333,0.349216,0.326623333,0.295810667,0.260873667,0.226754,0.196732,0.172846667,0.155861333,0.143984333,0.135744,0.130379,0.126364667,0.124082,0.122668667,0.121927333,0.122231667,0.122993333,0.124891,0.127961333,0.132632,0.138265333,0.144958667,0.151869,0.159463667,0.167265333,0.175564667,0.183695,0.191797333,0.200106333,0.208219,0.216422333,0.224182,0.231940667,0.239473333,0.246654667,0.253769667,0.260665,0.266820667,0.272381667,0.277667,0.282831667,0.287849333,0.292281,0.296699333,0.300935667,0.304819333,0.308832667,0.312077333,0.315173,0.317755,0.320603333,0.322843333,0.325688333,0.327441667,0.329146333,0.330677,0.331585667,0.332554333,0.333151667,0.333504667,0.333346667,0.332456333,0.330898,0.329792,0.328052,0.326779667,0.325229,0.323328333,0.320957333,0.318759333,0.316284667,0.313155667,0.309923,0.306080333,0.302066667,0.297888333,0.293684667,0.288728,0.284686667,0.281166,0.278432333,0.275983,0.274656,0.273593333,0.273561333,0.273674,0.273748333,0.273356333,0.273558,0.272944667,0.272275333,0.269766667,0.267246667,0.26229,0.256041667,0.246719,0.233783333,0.218009,0.199907,0.176817667,0.146870667,0.117264333,0.089932333,0.068713667,0.052882,0.042633333,0.037907333,0.034701,0.033215,0.032529,0.032398667,0.031664333,0.03205,0.033061333,0.033809667,0.034888667,0.036128333,0.037622667,0.039628,0.041683667,0.044288333,0.046309,0.049388,0.052630333,0.055892667,0.059267,0.063357,0.067231333,0.071456333,0.076005,0.080191333,0.084568,0.088903667,0.093145667,0.098231667,0.102320333,0.107622,0.112057333,0.117814667,0.123095333,0.128251667,0.133518333,0.139029,0.144212667,0.149147667,0.154614667,0.159632333,0.164753667,0.169686,0.174821333,0.178895667,0.183791,0.187009,0.190182333,0.193424333,0.195823333,0.198887,0.200263333,0.201396,0.203304,0.204875667,0.206401333,0.208075333,0.208929333,0.211176,0.211507667,0.212582333,0.212828333,0.213316667,0.213428333,0.212515333,0.211371667,0.209726667,0.207998,0.204633333,0.201186667,0.197077,0.192954,0.188682,0.184331667,0.180927333,0.177821,0.173594,0.169068333,0.165157333,0.161119667,0.156670667,0.152882,0.149226333,0.145100667,0.142253,0.138304333,0.132765333,0.129024,0.125996333,0.121846333,0.117721333,0.113166,0.109352667,0.105810667,0.102331667,0.099357667,0.09579,0.091580667,0.087068,0.083248333,0.080007,0.077930667,0.074945333,0.071105,0.067433333,0.064859,0.061963667,0.059423,0.055673667,0.052478,0.049597667,0.048084333,0.046194,0.044718333,0.043058,0.042047333,0.041361667,0.040075,0.039465333,0.039244
0.525141667,0.526438667,0.52786,0.529217,0.529913667,0.530890667,0.531778,0.532523667,0.533293,0.534365333,0.534389,0.534472667,0.534832,0.535150667,0.535198333,0.53504,0.534734,0.534047333,0.533770667,0.533206667,0.532535667,0.532121667,0.53121,0.530147333,0.529084333,0.527389,0.524653667,0.519917333,0.514103667,0.507569667,0.502194,0.498203,0.495929,0.494668667,0.493623,0.49316,0.492018333,0.491295,0.490529667,0.490606,0.490682,0.490854,0.491594667,0.492389333,0.493355333,0.494367333,0.49502,0.495549,0.496062333,0.497150667,0.497333667,0.497504333,0.497678667,0.497421667,0.497076,0.496585,0.495435333,0.494171,0.492720333,0.490499333,0.487552667,0.484357333,0.480981,0.476358,0.470963333,0.464975667,0.458447,0.451442333,0.444592333,0.437961333,0.431391667,0.425064667,0.418492,0.410247667,0.398965,0.383252333,0.361152,0.331902333,0.297513667,0.263519333,0.23271,0.207411,0.188964333,0.17555,0.166241333,0.159480667,0.154852,0.151845,0.150124333,0.149371,0.149222333,0.149888667,0.151612667,0.154908333,0.159613,0.165492333,0.172143,0.179272,0.186878667,0.194704667,0.202810667,0.210828667,0.218888333,0.226790333,0.234467,0.242092,0.249523,0.256607,0.26334,0.269921667,0.276627333,0.282702667,0.288022,0.293271333,0.298155333,0.30273,0.307278667,0.311565,0.315841,0.32031,0.324184667,0.328002667,0.331416333,0.334939,0.337892333,0.340801,0.343362667,0.345999333,0.348183333,0.350028333,0.351969667,0.353066667,0.353697,0.354293333,0.354664333,0.354071,0.353199333,0.351185333,0.349284667,0.347178,0.345361,0.34353,0.341967,0.340253667,0.338167667,0.335425,0.332205333,0.328947667,0.325381,0.321310667,0.316913667,0.313166333,0.308918333,0.305533333,0.302242667,0.299236,0.297641667,0.296933,0.296586667,0.296914667,0.297528667,0.297669,0.297696667,0.297958,0.297584667,0.296723333,0.295713667,0.293364,0.289623667,0.283628333,0.275016,0.262796,0.247594,0.230141667,0.205833667,0.174671333,0.142300333,0.111840667,0.086114333,0.066570667,0.053487667,0.045936333,0.041877,0.039291,0.038059,0.037537667,0.037499333,0.038150667,0.038888,0.040296333,0.041849667,0.043758667,0.046002,0.048661,0.051510667,0.054728667,0.058307,0.062293667,0.065997333,0.070394667,0.074891333,0.079455,0.084206333,0.088903,0.093639667,0.098400333,0.102796667,0.107546667,0.111708667,0.115994333,0.120016,0.124297667,0.128439667,0.133129,0.137572,0.141873667,0.146386667,0.150710333,0.155222,0.159601333,0.163716333,0.168555667,0.172843667,0.176685667,0.181108667,0.185595,0.189482333,0.192992333,0.196279667,0.198892667,0.201908333,0.203986333,0.205774667,0.207653333,0.209337667,0.211444,0.212673333,0.214600667,0.216727,0.218618333,0.219629333,0.220686,0.22168,0.222389333,0.222719333,0.221840333,0.221240333,0.219114667,0.217056667,0.213497333,0.209423,0.204986667,0.199833,0.194672,0.189696333,0.184462667,0.179379333,0.175526,0.172483333,0.169661,0.165845667,0.161649,0.157870667,0.154412333,0.151537,0.148576667,0.145570667,0.142559333,0.139031,0.134899667,0.131428,0.127973,0.124721333,0.121382,0.117847667,0.11404,0.110828333,0.107492,0.104047,0.100702333,0.097149333,0.092981,0.089307,0.086162,0.082142667,0.077951333,0.075148,0.072030333,0.068712,0.065353,0.062472667,0.059542667,0.056698333,0.054453,0.051788333,0.049845,0.048186667,0.046947,0.045064,0.043641,0.043365667
0.528856667,0.529972333,0.530945333,0.532222667,0.532768,0.533137,0.534442333,0.535273667,0.536004667,0.536987,0.536701333,0.537211,0.537759,0.538171333,0.537976,0.537724667,0.537766,0.537009333,0.536996667,0.537050667,0.535485,0.534516,0.534457,0.533641667,0.532612,0.530838667,0.527732667,0.523790333,0.517570333,0.510452333,0.505101333,0.501184667,0.498635,0.496745,0.495812,0.495334667,0.493937667,0.493405,0.492936333,0.492734667,0.492661,0.493195,0.493997333,0.494778667,0.495533,0.496699667,0.497568,0.498044,0.498834,0.499799333,0.499972333,0.500402,0.500623667,0.500589667,0.500130667,0.499310333,0.498254333,0.497056333,0.495583,0.493435667,0.490421333,0.487,0.483805,0.478828667,0.473447,0.467054333,0.459989667,0.452697,0.445269333,0.438217,0.431449667,0.425226667,0.418351333,0.409753667,0.39811,0.382044667,0.359771333,0.329505,0.293823333,0.257091333,0.224308333,0.19727,0.177750667,0.163521,0.153642,0.146655,0.141794,0.138821667,0.136995667,0.136224667,0.136037667,0.136575333,0.138117333,0.141079667,0.146021333,0.151631,0.158596667,0.165653,0.173611,0.181741,0.190311,0.198593667,0.20697,0.215430333,0.223423333,0.231779333,0.239737333,0.247204,0.25464,0.262071667,0.268928667,0.275286333,0.281394667,0.287090667,0.292227333,0.297364,0.302302,0.307070667,0.311707333,0.316379333,0.320447333,0.324397333,0.327914333,0.331748,0.334911333,0.338413333,0.340722,0.343499333,0.34607,0.347966667,0.349701667,0.351085,0.352138,0.352818,0.353459333,0.352897333,0.351542667,0.349671,0.347791,0.345856,0.343594,0.341818333,0.340701333,0.338244333,0.336073667,0.333495,0.330172333,0.32697,0.323324333,0.319560667,0.314770333,0.310208,0.305856333,0.302175667,0.298742,0.295639333,0.293474667,0.292381667,0.291731667,0.292056667,0.292338,0.293437667,0.293435333,0.293577667,0.2934,0.292866333,0.291349333,0.288980667,0.285033,0.279137667,0.270565,0.258392667,0.241929667,0.223415333,0.197632,0.166948667,0.13429,0.104587,0.078574,0.059654333,0.048753,0.041149667,0.038756,0.036033,0.035145,0.034931333,0.035021333,0.035188667,0.036193333,0.036935333,0.037970667,0.039313667,0.041849333,0.043438667,0.045601667,0.048548333,0.051613667,0.054905333,0.058313,0.062101,0.066272,0.070273333,0.074475333,0.079246333,0.083831667,0.087989333,0.092964667,0.097208667,0.101781667,0.105584667,0.109880333,0.114259,0.118872,0.123607333,0.128080333,0.133195333,0.137472,0.142766667,0.147686,0.152278,0.157218667,0.162154333,0.166848333,0.171447667,0.176125,0.180494333,0.184603667,0.188631,0.191601,0.195138,0.197441,0.199955,0.202419333,0.204513333,0.20591,0.207587,0.210173333,0.212025333,0.213546,0.216075333,0.218011667,0.219227333,0.220034,0.220437667,0.220593667,0.220498333,0.219714667,0.217611333,0.215198333,0.211549,0.207192667,0.202634333,0.197431667,0.192170333,0.187497333,0.182583,0.176765333,0.172117667,0.169480333,0.166146333,0.162606,0.158037,0.153607667,0.150178333,0.146828667,0.143941333,0.141175,0.138043667,0.133525,0.129992,0.126072667,0.121750667,0.118321333,0.114799333,0.110800667,0.108177333,0.104807333,0.100716333,0.097947667,0.095831667,0.091314667,0.086363333,0.083184667,0.079820667,0.076162667,0.072236667,0.068625333,0.066520667,0.064614,0.061568,0.057825,0.055903667,0.053081333,0.050018333,0.048386333,0.046839,0.045395333,0.043268667,0.042421333,0.040286333,0.042112
0.537904333,0.538988667,0.540272667,0.541248333,0.542109333,0.542915667,0.543804333,0.544549667,0.545079667,0.545891333,0.546059,0.546077667,0.546590333,0.547112,0.547163333,0.54677,0.546525667,0.546125,0.545589667,0.544808,0.544250667,0.543512667,0.542672,0.541752667,0.540767,0.53913,0.536565667,0.531921,0.526051333,0.519724,0.514813,0.511285667,0.509347667,0.508385,0.507886667,0.507756,0.507182333,0.506945,0.506474,0.506529333,0.506753667,0.507368667,0.508111333,0.508764,0.509398,0.510123667,0.510890667,0.511309667,0.511551333,0.512435,0.512797667,0.513143333,0.513171,0.512938,0.512514,0.512013667,0.510970333,0.509628333,0.50787,0.505721,0.50278,0.499476,0.496248333,0.491696,0.486344667,0.480239667,0.473627,0.466887667,0.460118333,0.453596667,0.447335,0.441295667,0.434642,0.426368,0.414794333,0.398659,0.376203333,0.346539,0.312101333,0.278108,0.247952333,0.223543,0.206207,0.193907667,0.185697,0.179877333,0.175945333,0.173649333,0.172421,0.172021667,0.172274333,0.173238,0.175187333,0.178738,0.183786,0.190009333,0.197199,0.204622,0.212604333,0.220874,0.229335,0.237797,0.246225667,0.254547,0.262700333,0.270795667,0.278733,0.286344667,0.293788,0.300909667,0.308115,0.314489333,0.320308,0.325841667,0.330625333,0.335399,0.340199333,0.344794333,0.348855,0.352869,0.356332667,0.359811333,0.36279,0.365959667,0.368556667,0.371367333,0.37349,0.375499333,0.377309,0.378628667,0.380325667,0.38142,0.382106,0.382345667,0.382507,0.382332,0.381819333,0.380532667,0.379358333,0.378064,0.376699667,0.374626667,0.372669,0.370574,0.368088333,0.365258,0.362103,0.359075333,0.355600333,0.351414667,0.346709333,0.342300333,0.338007667,0.333921,0.33004,0.327054,0.325011,0.323557333,0.322349667,0.321659667,0.321781333,0.321956667,0.321748667,0.321918,0.321404333,0.32046,0.318386667,0.315342333,0.310910667,0.303906333,0.294629,0.281023,0.26344,0.242850667,0.216207667,0.185356,0.154359333,0.124604333,0.100421,0.082200667,0.069180667,0.062490667,0.058114,0.055682,0.054121333,0.053540333,0.053717667,0.05433,0.055198333,0.056913667,0.058728333,0.060796,0.063089667,0.065744,0.068777333,0.071968,0.075529,0.079124667,0.083373667,0.087579,0.092219,0.096646667,0.101470667,0.106375333,0.111157667,0.116368667,0.121298667,0.126290667,0.130962667,0.135949,0.140843333,0.145995667,0.150867333,0.156043,0.161405,0.166373333,0.171988,0.176916,0.182350667,0.187413333,0.192421,0.197808667,0.202491667,0.207683,0.212209,0.216979333,0.220878333,0.225124,0.228403,0.230877667,0.233448,0.236029,0.23786,0.239005333,0.240317,0.241593333,0.242681667,0.244115,0.245395667,0.246554333,0.247558667,0.248451333,0.248043,0.248334,0.247833667,0.24714,0.246313333,0.244120333,0.242036667,0.239444667,0.236681667,0.233092333,0.228828667,0.225099667,0.221148,0.217080667,0.213132,0.209000333,0.205317,0.201824,0.197807333,0.193563333,0.189229,0.185267,0.181865333,0.178264667,0.174187667,0.170457667,0.166311667,0.161737333,0.157205667,0.153633333,0.149860333,0.14576,0.141852667,0.137985333,0.134575333,0.130719333,0.126412,0.12249,0.118782,0.114777,0.110745333,0.106891333,0.103678667,0.100323333,0.096782667,0.093139667,0.089679667,0.086501,0.083650333,0.080568,0.076935667,0.074581333,0.072481,0.070599667,0.067481333,0.066003667,0.064796,0.064785333,0.063321667
0.545720667,0.546893,0.548326333,0.549271,0.550468667,0.551075667,0.552670667,0.553868,0.554274,0.555154,0.555457,0.555513,0.556219,0.556631667,0.556812,0.556427333,0.555685,0.555419,0.554912,0.554001,0.553100667,0.552278667,0.551457,0.550803333,0.549805333,0.547512667,0.544851,0.540014333,0.532659333,0.52447,0.518173333,0.513984667,0.511366,0.509434333,0.508158333,0.507454,0.506733,0.506026667,0.505364,0.505086333,0.505133667,0.506036667,0.506981667,0.507625333,0.508830333,0.509768667,0.510643,0.511645333,0.512490667,0.513266,0.513674667,0.514089667,0.514386667,0.514064667,0.513645333,0.512918667,0.511612,0.510400667,0.508542333,0.506215333,0.502857,0.499035667,0.495457667,0.490260333,0.484260667,0.477343333,0.469426,0.461575667,0.453862667,0.446132667,0.438991333,0.431763333,0.424346,0.415516,0.403235333,0.386555667,0.363116333,0.331718,0.295885333,0.26021,0.227880667,0.201453,0.182715667,0.169414333,0.160324667,0.154106667,0.149511,0.14684,0.145029,0.144464333,0.144620333,0.145201667,0.146883333,0.149793,0.154535667,0.160106333,0.166859,0.173698667,0.181483333,0.189262333,0.19746,0.205519,0.213681667,0.222226667,0.230078,0.238071,0.245618667,0.253519,0.260856667,0.267678,0.274983667,0.281507333,0.287243,0.292972333,0.298008,0.303029667,0.308048667,0.312997667,0.317543667,0.322050333,0.32613,0.330427667,0.333928333,0.337888667,0.341046667,0.344053,0.347073667,0.350073667,0.351876667,0.354187333,0.356154667,0.357532,0.358474667,0.359086,0.359544333,0.359127667,0.357942333,0.355839667,0.353730333,0.351775,0.350234,0.347689333,0.34595,0.343903,0.341680333,0.338649,0.334956333,0.331643667,0.327987667,0.323470667,0.319374667,0.314601667,0.310037333,0.306144,0.302155,0.299286,0.29693,0.295882333,0.295105667,0.294681333,0.295073667,0.295892333,0.296491667,0.296585667,0.296447667,0.296153667,0.294157667,0.291566333,0.287624,0.281788667,0.272903,0.259741667,0.243150333,0.222835333,0.197290667,0.167087,0.137474667,0.108321,0.084718,0.067678667,0.055766667,0.049324,0.046298333,0.044566333,0.043514333,0.043063,0.042800667,0.043724667,0.044209667,0.045149,0.047021,0.048385333,0.050555333,0.052336333,0.054741,0.057612667,0.060312333,0.06338,0.067185667,0.070298667,0.074230333,0.078447,0.082634333,0.086517,0.090881,0.094812333,0.099394,0.103057,0.107328667,0.110961333,0.115552667,0.119253667,0.123766,0.128054667,0.132327667,0.136793333,0.141104667,0.145359333,0.149547333,0.154366,0.158477,0.162631333,0.16745,0.171716667,0.175845,0.18016,0.183999333,0.187683667,0.190814667,0.193908,0.195958,0.198204667,0.200455667,0.201831,0.203284,0.205242,0.206810667,0.208739,0.211016,0.212577333,0.214145667,0.215238,0.215817,0.215909333,0.216647,0.216310333,0.215083333,0.213214667,0.210887333,0.207621,0.203759667,0.199523667,0.194809,0.189651,0.184610333,0.179659,0.175226667,0.171403667,0.167654667,0.164811,0.161526333,0.15746,0.153481667,0.150507333,0.147705,0.144545333,0.141064,0.138064667,0.134758,0.130876667,0.127849333,0.124591,0.120806667,0.117693333,0.114811667,0.111307,0.108156667,0.104811333,0.101641667,0.098156667,0.094896333,0.090704,0.087484333,0.084466333,0.081432,0.07763,0.07435,0.071374667,0.069435667,0.067028,0.064832667,0.061374667,0.058965667,0.056423333,0.055561,0.055146,0.055208333,0.052068333,0.051388,0.050822333,0.049194667
