1000,1005,1010,1015,1020,1025,1030,1035,1040,1045,1050,1055,1060,1065,1070,1075,1080,1085,1090,1095,1100,1105,1110,1115,1120,1125,1130,1135,1140,1145,1150,1155,1160,1165,1170,1175,1180,1185,1190,1195,1200,1205,1210,1215,1220,1225,1230,1235,1240,1245,1250,1255,1260,1265,1270,1275,1280,1285,1290,1295,1300,1305,1310,1315,1320,1325,1330,1335,1340,1345,1350,1355,1360,1365,1370,1375,1380,1385,1390,1395,1400,1405,1410,1415,1420,1425,1430,1435,1440,1445,1450,1455,1460,1465,1470,1475,1480,1485,1490,1495,1500,1505,1510,1515,1520,1525,1530,1535,1540,1545,1550,1555,1560,1565,1570,1575,1580,1585,1590,1595,1600,1605,1610,1615,1620,1625,1630,1635,1640,1645,1650,1655,1660,1665,1670,1675,1680,1685,1690,1695,1700,1705,1710,1715,1720,1725,1730,1735,1740,1745,1750,1755,1760,1765,1770,1775,1780,1785,1790,1795,1800,1805,1810,1815,1820,1825,1830,1835,1840,1845,1850,1855,1860,1865,1870,1875,1880,1885,1890,1895,1900,1905,1910,1915,1920,1925,1930,1935,1940,1945,1950,1955,1960,1965,1970,1975,1980,1985,1990,1995,2000,2005,2010,2015,2020,2025,2030,2035,2040,2045,2050,2055,2060,2065,2070,2075,2080,2085,2090,2095,2100,2105,2110,2115,2120,2125,2130,2135,2140,2145,2150,2155,2160,2165,2170,2175,2180,2185,2190,2195,2200,2205,2210,2215,2220,2225,2230,2235,2240,2245,2250,2255,2260,2265,2270,2275,2280,2285,2290,2295,2300,2305,2310,2315,2320,2325,2330,2335,2340,2345,2350,2355,2360,2365,2370,2375,2380,2385,2390,2395,2400,2405,2410,2415,2420,2425,2430,2435,2440,2445,2450,2455,2460,2465,2470,2475,2480,2485,2490,2495,2500
0.4397516279,0.4431273862,0.4443279061,0.4454731221,0.4468940458,0.4480283878,0.4491017727,0.4500990204,0.4510182049,0.4517950192,0.4524495271,0.4530164412,0.4535001976,0.453747223,0.4539071487,0.4540018834,0.453835716,0.4536112267,0.45316773,0.4526857683,0.4520074111,0.4512717312,0.4504101594,0.4493704424,0.4480799169,0.4460814774,0.4429338912,0.43796144,0.4310998454,0.4232152638,0.415628509,0.4096073254,0.4053919275,0.4025610569,0.4005420225,0.3987480801,0.3968956902,0.3951388505,0.3939031469,0.3933356629,0.3935174329,0.3942146999,0.3953874689,0.3969859017,0.3989111298,0.4009429229,0.4027548787,0.4043305466,0.4057406032,0.406997314,0.4080199263,0.4087704468,0.4093760069,0.4096790242,0.4097312853,0.4095658058,0.4088712111,0.4078238187,0.4063692511,0.4043905432,0.4018518321,0.3985709758,0.3945379322,0.3896045318,0.3837877691,0.3770743383,0.3695751917,0.3617036374,0.3535877128,0.3457861066,0.3383277643,0.3312204382,0.324007561,0.3157564643,0.3052249109,0.2909627931,0.2714590344,0.2459646835,0.21621408,0.1859057668,0.1583738199,0.1363455429,0.1199797292,0.1086493394,0.1008913693,0.09552846305,0.09188037659,0.08947990535,0.08798591236,0.0872064409,0.0869372138,0.08711069533,0.08778532485,0.08924042941,0.09156822973,0.09474219664,0.09857159181,0.1029306876,0.1077404438,0.1128424323,0.1182664498,0.1239382367,0.1297621557,0.1357328378,0.1417277605,0.1477428838,0.1537297748,0.1595793319,0.1653862041,0.1710883292,0.1766409168,0.1820278679,0.1871296496,0.1920938339,0.1967809163,0.2012813443,0.2056165205,0.2097314037,0.2137424718,0.2175673381,0.2212669648,0.2248159964,0.2280885314,0.2310946772,0.2338771194,0.2363177365,0.2385764587,0.2406911567,0.2426152779,0.244201861,0.2453184064,0.245908137,0.2458643251,0.2454017284,0.2443631285,0.2426555057,0.2401651357,0.2370999167,0.2337054446,0.2301585374,0.2269048826,0.2241118389,0.2215250618,0.2193509495,0.2173977246,0.2153627396,0.2134029974,0.2115017293,0.2092537058,0.2064147199,0.2031251061,0.2000089043,0.1975098128,0.1954336013,0.1938622033,0.1924597356,0.19129497,0.1905329638,0.1900860275,0.1900252755,0.1903250915,0.191660485,0.1921434205,0.1926007638,0.1928483973,0.1926915752,0.192064302,0.1907235526,0.1883557263,0.1844895115,0.1786549222,0.1702656478,0.1588542756,0.1443537433,0.1265579444,0.1065001225,0.08668303458,0.06918452343,0.05538250923,0.04561892256,0.03950512296,0.03592630801,0.03386174577,0.03264278978,0.03192351716,0.03152611592,0.03135312173,0.03138560429,0.03159407664,0.03196996481,0.03241794067,0.03302254179,0.033690887,0.03448786913,0.03533507516,0.03628943839,0.03727257885,0.03841307244,0.03958997686,0.04087504198,0.04225219972,0.04363435195,0.04513207673,0.04665378656,0.04815134941,0.04969885206,0.05123923607,0.0527865711,0.05426975522,0.0558066661,0.05729100496,0.05883012133,0.06047867593,0.06217992664,0.06393662092,0.0657357697,0.06753564097,0.06934863884,0.07114908239,0.07295881984,0.07476301267,0.07659902214,0.07834789669,0.08006801508,0.08175608811,0.08331831268,0.08484929844,0.08627998805,0.08760890137,0.08887308012,0.09017726832,0.0914367242,0.09263530435,0.09375822874,0.09491000138,0.09600414973,0.09707583701,0.09810935634,0.09904522502,0.0999042982,0.1006105382,0.101137055,0.1014910462,0.1016012376,0.1014759437,0.1010611639,0.1003009215,0.09901724632,0.097166101,0.09481882107,0.09208393374,0.08903089991,0.08600811894,0.08318270985,0.08066768216,0.07864824163,0.07677508576,0.07479488475,0.07261240648,0.07022632967,0.06804119454,0.06662047503,0.06583734213,0.06563125681,0.06531059859,0.06479914378,0.0636303894,0.06210129781,0.06056898528,0.05903271659,0.05787866566,0.05701088345,0.05630875226,0.05524453924,0.05435093653,0.0534492749,0.05243194453,0.0513854983,0.05030886641,0.04931565936,0.04817965328,0.04732025745,0.04632460988,0.0454785534,0.04465787012,0.04358919175,0.04277084975,0.04191699028,0.04103730992,0.0402780878,0.03923990107,0.03862853409,0.03757353325,0.0368882618,0.03642794697,0.03581348359,0.03554702051,0.03526333732,0.0351624853,0.03464742428,0.03451191893
0.5591478119,0.5618317916,0.5630702293,0.5647161639,0.5663656889,0.5678537302,0.5692829717,0.5706249594,0.571785629,0.5729355588,0.5738281502,0.5748317479,0.5754425384,0.575958923,0.5764291855,0.5765410105,0.5765737587,0.5764272962,0.5760382649,0.5755539714,0.5749058213,0.5740463293,0.5731328938,0.5720367614,0.5704564115,0.5681058353,0.5643754587,0.5590618395,0.5519651583,0.5436878936,0.5352725681,0.5278579817,0.5220814471,0.5178373435,0.5148276202,0.5123140146,0.5101338199,0.5079848277,0.5062163547,0.5049847732,0.5043669723,0.5044655493,0.505304437,0.5067805465,0.5086797358,0.5107214253,0.5126590377,0.5144938785,0.5160695959,0.517466914,0.5186907704,0.5196642162,0.5204451624,0.5210294953,0.5213166334,0.521295391,0.5209358539,0.5201830983,0.5189045215,0.5171441552,0.5146080513,0.5112993493,0.5070203178,0.5016577012,0.4953912809,0.4879398138,0.4795194781,0.4704853503,0.4612612433,0.4523088541,0.4439977189,0.4363324503,0.4286812333,0.4202544768,0.409877028,0.3958692232,0.3763824897,0.3497973169,0.3170326723,0.2814715567,0.2466430643,0.216060048,0.1911970965,0.1721507219,0.1579789809,0.147501448,0.1398230231,0.1343452738,0.1306263153,0.1283254496,0.1270594947,0.1265751114,0.1268820933,0.1282371923,0.130719314,0.1343627856,0.1389276056,0.144172708,0.1499419233,0.1560128064,0.16237222,0.1688341177,0.175414866,0.1820009023,0.1885252598,0.1949211806,0.2011450599,0.2071392415,0.2129433076,0.2185052588,0.2239076051,0.2290590802,0.2339763087,0.2387426335,0.2433636933,0.2477936997,0.2521549358,0.2563959788,0.2606468781,0.2648184459,0.2688830294,0.2728318309,0.2766537205,0.2803130509,0.2836824233,0.2868255979,0.2897491748,0.2924100247,0.2947875321,0.2966260232,0.2977603753,0.2979532572,0.2975816389,0.2971491205,0.2968863227,0.2967526347,0.2963066414,0.2951347096,0.2933688503,0.2914344179,0.2893406594,0.2869158852,0.2842277107,0.2814415356,0.2786714276,0.2759734402,0.2734978981,0.2713518382,0.269160384,0.2665738519,0.2638036263,0.26098318,0.2583603933,0.256036145,0.2541660976,0.2526414131,0.2515455777,0.2510681724,0.2510626954,0.2516273595,0.2525391173,0.2538535941,0.2549937592,0.2560554026,0.257007481,0.2576707469,0.2578805515,0.2574714947,0.2560359848,0.2530820378,0.2480669976,0.2402581632,0.2289106966,0.2135161383,0.1934261243,0.1686472026,0.1412741295,0.1135945482,0.08829116202,0.06764969194,0.05316103596,0.04385322101,0.03839690898,0.03527587047,0.03343564145,0.03240571305,0.03193013328,0.03184823905,0.03210294868,0.03270331764,0.03350221437,0.03457201549,0.03580670341,0.03726511654,0.0389499457,0.04082170822,0.04292439254,0.04517500932,0.04756936394,0.05005038655,0.0526951405,0.05528667668,0.05798229011,0.06065322505,0.06322537646,0.06571424141,0.06802381308,0.07019297547,0.07223396485,0.07410238166,0.0759189079,0.07763031816,0.07950355209,0.08137227946,0.08327928227,0.08517904682,0.08708311174,0.08890037362,0.09068347705,0.0925542532,0.09433124105,0.09622160862,0.09813609584,0.09997340147,0.1018243505,0.103527263,0.1052255545,0.1069301868,0.1086361161,0.1104434637,0.1123823542,0.1144208142,0.1164756241,0.1185055974,0.1206257282,0.1226337382,0.1247918878,0.1269320493,0.1291142067,0.1311771953,0.1331261243,0.1348841881,0.1363726695,0.1377129052,0.1385956983,0.1390782938,0.1389299782,0.1379042239,0.1360695405,0.1336218046,0.1303285102,0.1267632955,0.1229166533,0.1189845722,0.1151055751,0.1117358907,0.1086961904,0.1062037142,0.1039756915,0.1018277063,0.09948369727,0.09727083568,0.09547701781,0.09434073284,0.09329563429,0.09203690281,0.09023304432,0.08814324379,0.0860831733,0.08377584995,0.08198853783,0.08063270695,0.07929589435,0.07768060516,0.07596993392,0.07424807994,0.07249058074,0.07050879016,0.06856557964,0.06684166683,0.06486421637,0.06297656258,0.06105109511,0.05884118501,0.05694989244,0.05493229745,0.05299524284,0.05094030628,0.04888068697,0.04740351339,0.04546110169,0.04439455836,0.04248784898,0.04172638709,0.04001287986,0.0393310508,0.03813557861,0.037375242,0.03683353289,0.0361688851,0.03671296205
0.5730885849,0.5762343658,0.578058915,0.5798685195,0.5817940989,0.5836167895,0.5851948686,0.5866813406,0.58805381,0.5893040067,0.5904308544,0.5913210572,0.5921051636,0.5927075375,0.5930381458,0.5932318734,0.5932134037,0.5929819602,0.5925649605,0.5919795807,0.5911238242,0.5901671318,0.5890284795,0.5876519113,0.5856993313,0.5828023633,0.5783600287,0.5719288874,0.5634146773,0.5534607791,0.5434323879,0.5346274881,0.5275998814,0.5225788564,0.5187712514,0.5157592516,0.512841581,0.510089476,0.5078951755,0.5063473725,0.5055790057,0.5057910195,0.5070767413,0.5092822096,0.511971419,0.5147882741,0.5174146105,0.5197323787,0.5217032774,0.5234403174,0.5249310088,0.5261502339,0.5270488639,0.5276595038,0.5279547556,0.5278957982,0.5274584701,0.5265301397,0.5250935888,0.5228524439,0.5198825776,0.5159596122,0.5110397979,0.504913512,0.4977008604,0.4891922313,0.4796561367,0.4694669937,0.45898452,0.4488918009,0.4393851732,0.4305048568,0.421725841,0.4121098228,0.4004651998,0.3850561772,0.3639635414,0.3357750147,0.3018198972,0.265666155,0.2308830175,0.2009748524,0.1771026538,0.1591465118,0.1461113971,0.1366339787,0.1298817759,0.1251468519,0.1219955179,0.1200982624,0.1190804185,0.1187800616,0.119129434,0.1203580778,0.1226409952,0.1259887955,0.1302083632,0.1350630429,0.1403899636,0.1460451225,0.1519423215,0.1579997654,0.1641616675,0.1703254177,0.1764473621,0.1825154376,0.1884621303,0.1942305488,0.1998004824,0.2051764495,0.2103403893,0.2153472401,0.2200753576,0.2246798793,0.229099185,0.2333940299,0.2376298324,0.2417195208,0.2457803361,0.2497860637,0.2536672298,0.257465084,0.2611153233,0.2645868642,0.2677821083,0.2707192041,0.2733361812,0.2757689856,0.2778198994,0.2794928974,0.280367335,0.2803939223,0.2796677678,0.2788010047,0.2780206644,0.2772370468,0.2759791959,0.2739831075,0.2711988739,0.2680244988,0.264891308,0.2614887812,0.2577961182,0.2544648578,0.2519690953,0.2500002814,0.2484305917,0.2469190803,0.2449818348,0.2426206335,0.2399593995,0.237491198,0.2353312982,0.2336730689,0.2322592878,0.2310710789,0.2303159242,0.2301025324,0.2305867779,0.2314710481,0.2325523725,0.2334334192,0.2346630469,0.2357892077,0.2366811692,0.2372967095,0.2375240097,0.2370947945,0.2356781467,0.2328601281,0.2280644824,0.2206022592,0.2098488177,0.1953961755,0.176652854,0.1538725826,0.1292175435,0.1048646502,0.08321433162,0.06608297215,0.05441458868,0.04721187607,0.04313493038,0.04089032427,0.0396313308,0.0389511771,0.03864656269,0.03862199206,0.0388396372,0.03923404472,0.03981967493,0.04055582649,0.04145963604,0.04251942574,0.04374904418,0.04512067805,0.04665491432,0.04830684277,0.05011416996,0.05198276612,0.0539240472,0.05596976513,0.0580719638,0.06021366973,0.06229256348,0.06428976633,0.06618983767,0.06796446609,0.06957934896,0.07114861707,0.07263014671,0.07405989599,0.07550087798,0.07700160898,0.07851900894,0.08005083805,0.08159118376,0.08309214771,0.08454301616,0.0860294359,0.08747651935,0.08893173645,0.09038471145,0.09178177686,0.09313649019,0.09443118179,0.09569668506,0.09694834033,0.09818987413,0.09955423975,0.1010523951,0.1027247473,0.1045114395,0.1063722432,0.1081799871,0.1100246515,0.1119291851,0.1138283938,0.1157570498,0.117587881,0.1193426715,0.1208491678,0.1222298539,0.1233761049,0.1242287145,0.1245908714,0.1243876936,0.1233576188,0.1215562272,0.1189653769,0.1157631453,0.1121539857,0.1084050266,0.1046569808,0.1010916048,0.09792693261,0.09508593823,0.09260198387,0.09035838454,0.08806183914,0.08578530886,0.08393890575,0.08287678023,0.08241442362,0.08204749027,0.08110929699,0.07968575183,0.07806845199,0.07646176671,0.07488330334,0.07363772582,0.07267379332,0.07177234887,0.07079340976,0.06955074914,0.06839964054,0.06727792038,0.06583590959,0.06443839481,0.06300579922,0.06154559412,0.0601156137,0.05874186922,0.0574857154,0.05620234908,0.05451969263,0.05346532289,0.05211992036,0.05060530917,0.04942759874,0.04789865839,0.04701031142,0.04573705963,0.04513623608,0.04420524849,0.04353692489,0.04280335787,0.04245810245,0.04186329833,0.04174525739,0.04104866544
0.4336525893,0.4350882081,0.4359519607,0.4368884848,0.4378373963,0.4387671539,0.439600917,0.4402806285,0.440970552,0.441513869,0.4420301157,0.4425215626,0.44309699,0.4434669565,0.4437659393,0.4440469958,0.444110097,0.4441475795,0.4440821335,0.4439005099,0.4435083772,0.4430789457,0.4425592925,0.4419514886,0.441160126,0.4399189725,0.4379675461,0.4350529879,0.4309185204,0.425888148,0.4208178644,0.4164285554,0.4130619009,0.410704299,0.4090855446,0.4078046471,0.406630396,0.4054073936,0.4044149774,0.4036726304,0.4032957334,0.4032144558,0.4035505892,0.4043190347,0.405571392,0.4071029154,0.4085791825,0.4098593539,0.4110065472,0.4120565267,0.4128820409,0.4135384698,0.4140970133,0.4145147079,0.4146191716,0.4145331898,0.4143587366,0.4139769134,0.413253307,0.4122495375,0.4107937762,0.4088798562,0.4063624692,0.4031190656,0.3991997128,0.3945727101,0.389317332,0.3836314007,0.3776623555,0.3718332804,0.3662999423,0.3610772602,0.3558105815,0.3499724834,0.3425996825,0.3324973818,0.3181357004,0.2980706303,0.2728433165,0.244966361,0.2173167525,0.1928135203,0.172715408,0.1573049279,0.14586451,0.1373981149,0.1312327207,0.1268426493,0.1238863067,0.1220552872,0.1210743832,0.12074761,0.1211340723,0.122493056,0.1249463453,0.1284632246,0.1327350237,0.1376253719,0.1429441362,0.148572668,0.1544011414,0.1603733584,0.1663847278,0.1724476989,0.1783937046,0.1842979924,0.1899870459,0.1954906571,0.2008458011,0.2059864123,0.2110048272,0.2158099819,0.2203248563,0.2246421068,0.2287171076,0.2326721973,0.2365184338,0.2401730283,0.2438225205,0.2473070826,0.2507155598,0.2540024878,0.2571274268,0.2600535858,0.2627776151,0.2652901931,0.2675059384,0.2695328887,0.2711479261,0.2723693391,0.2730714555,0.2733978392,0.2733411175,0.2731494148,0.2729322716,0.2724611176,0.2715616325,0.2700901413,0.2681983762,0.2659983557,0.263708381,0.2612542572,0.2585980451,0.2558965833,0.2532988133,0.2508557172,0.2489077249,0.2478931117,0.2473133709,0.2458677117,0.2436927068,0.2410539199,0.2382482758,0.235871486,0.2342515312,0.2331680564,0.2323286489,0.2318337131,0.2317800322,0.2320431876,0.2326329289,0.2338261481,0.2347426262,0.2356063383,0.2361910873,0.236561587,0.2366351462,0.236094179,0.2346333229,0.2319248403,0.2273224246,0.2202480916,0.2099579052,0.1960609437,0.1777620631,0.1551437443,0.130151202,0.1047663261,0.08163050333,0.06285493723,0.04962414466,0.04113576657,0.03615034308,0.03324344569,0.0314864077,0.03052492367,0.03008308656,0.03008503307,0.03041235101,0.0310268175,0.03189931783,0.03302338646,0.03431321635,0.03582912523,0.03748175184,0.03936125071,0.04143040421,0.04364937415,0.04602875963,0.04850726979,0.05105362345,0.05368750469,0.05633158306,0.05902279913,0.06161222476,0.06420640606,0.06657750153,0.06889525891,0.07102417792,0.07302149154,0.07492807536,0.07685682639,0.07891116862,0.08101809821,0.08320631874,0.08542534519,0.08763041372,0.089808812,0.09191198322,0.09399082756,0.09601906757,0.09800971291,0.09995625545,0.1018867129,0.1036984778,0.1054282724,0.1070978496,0.1086730901,0.1101762054,0.1117749972,0.1134257458,0.1150546014,0.1165257466,0.1179031589,0.1193748543,0.1208758716,0.122503079,0.1241179193,0.1257539469,0.1273595732,0.1288312402,0.1302197374,0.1313381485,0.1321636387,0.1325625661,0.1323864189,0.1314206328,0.1296177743,0.1272038104,0.1240284061,0.1207161202,0.1173167637,0.1139257636,0.1108012198,0.1080156739,0.1056157287,0.1035555933,0.1017337133,0.09976143126,0.09723619254,0.09432669979,0.09126342341,0.08852687468,0.08710929216,0.08698982032,0.08653694966,0.08514193598,0.08329931697,0.08120530455,0.07906546943,0.07712604994,0.07578988948,0.0749168771,0.07374178865,0.07217912712,0.07046736746,0.06872108302,0.06682125387,0.06516212784,0.06345213593,0.06176998733,0.0600623258,0.05814636944,0.05610914524,0.05417381076,0.05251208077,0.05063040664,0.04881849037,0.04705258152,0.04522592702,0.04352867074,0.04217461051,0.040516984,0.03936402053,0.0380865255,0.03674256602,0.0359307307,0.03536425453,0.03469763402,0.03418019112,0.033821054
0.4278691974,0.4295633739,0.4303113887,0.4310631233,0.4318532541,0.4327005522,0.4333695334,0.4339458296,0.4345458467,0.4350134759,0.4354637874,0.4358840718,0.4362474448,0.4366602409,0.4368780086,0.4369809989,0.4370425211,0.4370149521,0.4368833203,0.4366761763,0.4362912559,0.4358670267,0.4353514844,0.4347697141,0.4338970197,0.4326410685,0.430829025,0.4281270837,0.4241883424,0.4195437165,0.4147037244,0.4104311247,0.4071509968,0.4048253121,0.4032107248,0.4019408255,0.4007317806,0.3995778948,0.3985485616,0.3978744568,0.3974317982,0.3973662629,0.3975850533,0.3982748952,0.3994816121,0.4010651447,0.4026091434,0.4038911552,0.4049764362,0.4059607625,0.406753372,0.4073986068,0.4078571254,0.4082402335,0.4082918372,0.4082380149,0.4080214703,0.407677381,0.4070799525,0.4061546793,0.4047908227,0.4029642762,0.4006359146,0.3976565478,0.3940491749,0.3897248724,0.3847535063,0.3793663198,0.3736585421,0.3680478276,0.3626965779,0.3577540133,0.3527958482,0.3471709267,0.3400808115,0.3304570452,0.316878585,0.2978401498,0.2736129931,0.2465950113,0.2195267978,0.1952349203,0.1751136766,0.1596251843,0.1481725714,0.1397733219,0.1337318992,0.1295169492,0.1267032172,0.1250406204,0.1241494122,0.1238954722,0.1243087769,0.1256593303,0.1280546934,0.1315345946,0.1357835316,0.1406071585,0.1458628592,0.1513279295,0.15700562,0.1627798148,0.1686579486,0.1744717802,0.1802120065,0.1858617487,0.1913510982,0.1965968239,0.2017238021,0.2066206868,0.2113775877,0.2159614673,0.2202605827,0.2243279013,0.2281466869,0.2318576674,0.2354340423,0.2389041812,0.2422572314,0.2456046689,0.2487958885,0.2519455872,0.2549284892,0.2576773462,0.260247042,0.2625629906,0.2645775611,0.2663356137,0.2678326794,0.2687592951,0.26921087,0.2691930335,0.2688565646,0.2684239516,0.2680530039,0.2673793507,0.2663191039,0.2646656775,0.2625966979,0.2603248424,0.2579048795,0.2552637795,0.2523896432,0.2494983677,0.2466975712,0.2442031405,0.2424212347,0.2418798025,0.2417704304,0.2408260711,0.2388228927,0.2363938687,0.2337778424,0.2315721958,0.2301566155,0.2293466967,0.2287343522,0.2283562565,0.2283072841,0.22858722,0.2291395675,0.2298537568,0.230798262,0.2316669794,0.2323203426,0.232770815,0.2329397112,0.2325482714,0.2313008073,0.2288110615,0.2244970476,0.2178413438,0.2081181697,0.1948908416,0.1773740221,0.1555409018,0.131101253,0.1060380265,0.08304184742,0.06425598218,0.05093143545,0.04239306522,0.03738808874,0.03442480143,0.032707936,0.03177688892,0.03134758219,0.03135346814,0.03172476092,0.03236780256,0.03331132615,0.03443724508,0.03576134146,0.03730946027,0.03898375546,0.04093206498,0.04299923006,0.04522549441,0.04761378853,0.0500679819,0.05263063323,0.05522796305,0.05787151119,0.06051751839,0.06310703762,0.06559119724,0.06793244473,0.07013608301,0.07211881002,0.07397861056,0.07574097952,0.07746585825,0.07933756098,0.08136652315,0.0833815236,0.08544206923,0.08747844657,0.08946265334,0.09139402138,0.09328508674,0.09509975198,0.09690488131,0.09864957805,0.1003263705,0.1019197892,0.1033542665,0.1047814203,0.1061052875,0.1074271897,0.1088459626,0.1102931136,0.111744456,0.1131031619,0.1143487158,0.1157030209,0.1170931695,0.1185996177,0.120063929,0.1216077061,0.1231490901,0.1246277365,0.1259195053,0.1269809463,0.1278197585,0.1281333783,0.1278263117,0.1267393166,0.1247053152,0.1219763935,0.1187191575,0.1151606377,0.1115267765,0.1081974333,0.1051529027,0.1024767643,0.1004024016,0.0985894422,0.09696458629,0.09502080413,0.09258952036,0.08970723059,0.08672212734,0.08420885664,0.0830046887,0.08313106746,0.08279820072,0.08160575341,0.07986152033,0.07799249109,0.07604529648,0.07425490335,0.07314900006,0.07235596303,0.07137264318,0.07001354479,0.06852035041,0.06697146438,0.06517414524,0.06360132608,0.06205485483,0.0605232577,0.05890046367,0.05704796916,0.0553353296,0.05364924318,0.05173660128,0.05000390141,0.04832811362,0.04651896994,0.04460956166,0.04322979149,0.04184479041,0.04018578011,0.03904619284,0.03771466391,0.03665795707,0.03571141543,0.03495022041,0.03455030892,0.03389483809,0.03416363529
0.4728530664,0.4749201169,0.4762291551,0.4773960808,0.4786440481,0.479942727,0.481076443,0.4821824723,0.4832002502,0.484177951,0.4850300411,0.4856325696,0.4860298151,0.4862656849,0.4863227243,0.4862498321,0.486158978,0.4859177326,0.4856121396,0.4850820383,0.4844692286,0.4837503004,0.4829646398,0.4820530237,0.480751343,0.478857848,0.4758953334,0.4712522333,0.4647305643,0.4570433391,0.4494733828,0.4431162179,0.4385750657,0.4354342811,0.4332516462,0.4314420801,0.4296638418,0.4278387035,0.4264799282,0.4257181342,0.4257331483,0.426233648,0.4272440943,0.4286523228,0.4305110228,0.4324519514,0.4342644762,0.4358878375,0.4372635315,0.4385020622,0.4395664056,0.4404402375,0.4410928234,0.4414622205,0.4415955002,0.4414565887,0.4409630711,0.4400365756,0.4387060778,0.4368350457,0.4343946261,0.4312779767,0.4273640309,0.4226253663,0.4170093764,0.4104700556,0.4031637396,0.3953445237,0.3873329194,0.3795261878,0.3721072823,0.3651345243,0.3580817128,0.3501952816,0.3401972983,0.3268232635,0.3084044035,0.2838535415,0.2545264915,0.2237516149,0.1947550515,0.1704267977,0.1515978896,0.1379509542,0.1283408799,0.1216067966,0.1169533636,0.113791549,0.1117558992,0.1106033709,0.1100735523,0.1100552329,0.1105833384,0.111941465,0.114262446,0.1174751887,0.1214499274,0.1259374407,0.1308537727,0.1360432972,0.1414933076,0.1470986662,0.1528376094,0.1585720227,0.1643176121,0.1700421837,0.1756837339,0.181140809,0.1864542202,0.1916102487,0.1966434376,0.2014839737,0.2060955001,0.2104732594,0.2146920618,0.2187222888,0.2226673659,0.2264458103,0.2301003656,0.2336620345,0.237114491,0.2403800751,0.2434951431,0.2463754989,0.2489559981,0.2512270118,0.2533226767,0.2552034423,0.2568786225,0.2581314545,0.2588147708,0.2590331709,0.2589052249,0.2585242082,0.257822128,0.2564529051,0.2540451175,0.2507069398,0.2470643649,0.243537682,0.2404384553,0.2376504688,0.2352746251,0.2331509213,0.2312296126,0.2294356994,0.2279053291,0.2266663703,0.2252079835,0.2231687784,0.220620968,0.2179154459,0.2153770818,0.2132011545,0.2116062363,0.2104686255,0.2097033924,0.2091988414,0.2090473279,0.2091859336,0.2096803353,0.2102208095,0.2108844865,0.2114427374,0.21190335,0.2120267343,0.2117298075,0.2108293049,0.2089889587,0.2057763408,0.2007106636,0.1932030938,0.1826481918,0.168871372,0.1514940903,0.1310036939,0.1096200444,0.08944710223,0.07231400618,0.05921938771,0.05047382637,0.04506981672,0.04191772096,0.04009359641,0.03905179114,0.03843771834,0.03821183398,0.03820612938,0.03847842649,0.03891325757,0.03957140888,0.04034467276,0.04126470227,0.04233784573,0.04346578147,0.04474338072,0.04610992075,0.04760310007,0.04918887402,0.05087116955,0.05259549856,0.05440070952,0.05622813655,0.05807694746,0.05988708549,0.06173850402,0.06347912108,0.06516254237,0.06672898576,0.06822448396,0.06966386622,0.07113588577,0.07270535203,0.07427267618,0.07589280057,0.07754027991,0.07920606238,0.0808682405,0.08251894123,0.08413231846,0.08570074943,0.0872451968,0.08870697988,0.09015994265,0.09154057587,0.09289723338,0.09421584771,0.09539602484,0.09651804801,0.09775883637,0.09901328446,0.1002247955,0.1013173988,0.1023090183,0.1033770915,0.1044803689,0.1056627286,0.1068474368,0.108047038,0.1091345475,0.1101861039,0.1111052978,0.1117846156,0.1122764834,0.1124638309,0.1122615381,0.1114787472,0.1100596037,0.1080139962,0.1055055094,0.1026111834,0.09948035637,0.09633898443,0.09341342194,0.09075660854,0.08850168957,0.08666765801,0.08497599811,0.0830951511,0.08099592729,0.07887656028,0.07713682505,0.0759078854,0.07534436438,0.07514904483,0.07467635852,0.07360900452,0.07233505379,0.07097826561,0.06959045925,0.06840585582,0.06757887324,0.06682576981,0.06597505472,0.06501642593,0.06387192862,0.06263441502,0.06148088009,0.06026528551,0.05894502981,0.05765629599,0.05649464515,0.05522213785,0.05397132769,0.05285649517,0.05171171217,0.05052352783,0.04932879094,0.04814771847,0.04714613279,0.04601836588,0.04509206228,0.04405984612,0.04338034008,0.04245864125,0.04194211621,0.04131485614,0.04095648261,0.04022828774,0.04019223593,0.03981190565
0.4413343527,0.4442980516,0.4455054809,0.4466654906,0.4479812285,0.4491101301,0.4502597595,0.4512897519,0.4522732881,0.4530349582,0.4537984196,0.4543360873,0.4548066325,0.4550864552,0.4552295693,0.4552007268,0.4552160596,0.4549669845,0.4546117296,0.4541585505,0.4535295697,0.4528711469,0.4521118133,0.4512345326,0.4500865825,0.4482727468,0.4452701787,0.4406371522,0.4342031609,0.4268031077,0.4197625559,0.4140925055,0.4101010033,0.407344238,0.4053231242,0.4035634067,0.4017531756,0.4000333456,0.3987805643,0.3981891481,0.3983057765,0.3990019032,0.400075063,0.40160955,0.40341321,0.405297252,0.4070111832,0.4085171281,0.4098926816,0.4110473258,0.4120545727,0.4128332949,0.4134777703,0.4138379716,0.4139223497,0.4137364672,0.4131437151,0.4121654781,0.4107723993,0.4088752441,0.4064234163,0.4032874281,0.3994042106,0.3946977294,0.3891612057,0.3827579579,0.3756730508,0.3681046531,0.3604405774,0.3530325344,0.345944355,0.3392570189,0.3324638664,0.3246909065,0.3145368799,0.3007003059,0.2815953208,0.2563342412,0.2265423717,0.1960175324,0.1680416297,0.1453958976,0.1284161128,0.1164288577,0.1080385543,0.1021520906,0.09799469349,0.09516199377,0.09332192939,0.09225490292,0.09178056442,0.09179422539,0.09235938504,0.09378099837,0.09610277384,0.09929267446,0.1031765204,0.1076033162,0.1125204655,0.1177602991,0.1233264975,0.1291522258,0.1351680082,0.1412796338,0.1474343646,0.1536828459,0.1598302047,0.1658868985,0.1718893668,0.1777570792,0.1835035665,0.1890446958,0.1943413333,0.1994527729,0.2042873812,0.2089380509,0.2134152323,0.2176217404,0.2217304016,0.2256346951,0.2293374089,0.232808153,0.236053293,0.2390984445,0.2418216473,0.2443010414,0.246558993,0.2486541055,0.2505791188,0.2522316262,0.2533922457,0.2539380526,0.253996049,0.2536457358,0.2527346228,0.2512177805,0.24894055,0.2460770292,0.2429001637,0.2395005179,0.2363243918,0.2335313882,0.2310336897,0.2289897827,0.227041485,0.2250832658,0.2231507072,0.2212928132,0.2191501303,0.2163495675,0.2130526713,0.2099932782,0.207442027,0.2053969018,0.2037817387,0.2024152008,0.2013076956,0.2006175221,0.2002999369,0.2002554566,0.200659462,0.2015062174,0.2020783927,0.202585645,0.2028706436,0.2027940226,0.2022766278,0.2009441796,0.1985603756,0.1947276949,0.1888611289,0.1803388482,0.1687316709,0.153832319,0.1355538932,0.1146890398,0.09392827084,0.07531892688,0.06037243383,0.04961026273,0.04275417937,0.03864409606,0.03629380038,0.03486443559,0.03398023673,0.0335022769,0.03326623925,0.03326438455,0.03346561802,0.03385736371,0.03437148711,0.03501218542,0.03572843427,0.03657331708,0.03748207444,0.03852166884,0.0396480378,0.04088616418,0.042198833,0.04361226645,0.04503702447,0.04657166398,0.04816512418,0.04976676651,0.0514153847,0.05311790588,0.05476695957,0.05644887436,0.05812444173,0.05977153306,0.06146565047,0.06318343832,0.06499218968,0.06685947581,0.06880136746,0.07081426983,0.0728470259,0.07490123511,0.07694221186,0.07896838203,0.08093826265,0.08296701623,0.08490090677,0.0868570492,0.08869160137,0.09044730664,0.09210805675,0.09364096031,0.09508904767,0.0965319306,0.09792197796,0.09923390913,0.1005370322,0.1017760172,0.1029992327,0.1041619372,0.1053528744,0.1064684214,0.1074974276,0.1084373261,0.109253243,0.1098439251,0.1102520551,0.1104219937,0.1103278916,0.1100129747,0.1092798525,0.1080252156,0.1061879711,0.1038134402,0.1010567272,0.09788318258,0.09475544424,0.09174052149,0.08900940346,0.08669267997,0.08459304415,0.08244128347,0.07982547445,0.07708802146,0.07473654278,0.07311635188,0.07248276544,0.07225224397,0.07205547771,0.07130448425,0.07001360698,0.06850426209,0.06674651496,0.0648859049,0.06356699447,0.06273940217,0.06182717737,0.06069083153,0.0597514241,0.058678732,0.05760961255,0.05641751133,0.05523180515,0.05408538293,0.0530038245,0.05201421084,0.05088924623,0.04985605353,0.04888249088,0.0479236417,0.04688584055,0.04596499481,0.04506498254,0.04397817141,0.04300208404,0.04214849416,0.04125850621,0.04062461354,0.03979736354,0.03934891237,0.03895570462,0.03825476352,0.03817225259,0.03780811548,0.03765867059
0.4974951383,0.4993189843,0.4997699531,0.5002841474,0.5007408276,0.501227078,0.5016503798,0.5017961684,0.5020174938,0.502224745,0.5024050556,0.5026605069,0.5028059524,0.5029932341,0.5029395231,0.5028097568,0.5025200751,0.5021487927,0.5016607925,0.5009965119,0.5002974563,0.4995102627,0.4986129155,0.4975644425,0.4963476143,0.4948367449,0.492788988,0.4898836857,0.485844063,0.4809298297,0.4759117184,0.4715075044,0.4682339008,0.4658163031,0.4641436774,0.4628389499,0.4617165281,0.4606333443,0.4596127484,0.4587098702,0.4581573366,0.45789912,0.4580037435,0.4583531805,0.4589779474,0.459814128,0.4605545508,0.4612484755,0.4618095913,0.4622828457,0.4626253093,0.4628003535,0.4628341275,0.4627971345,0.4625266903,0.4621000939,0.4616086144,0.4608955563,0.4599184591,0.4587588512,0.4570979181,0.4549491197,0.4522316555,0.4489830015,0.4450510247,0.4404746464,0.4353396349,0.4298614338,0.424108956,0.4185570707,0.4133260773,0.4084027068,0.403401237,0.397810813,0.3906118595,0.3807016622,0.3666292189,0.3469409643,0.3218689671,0.2936194452,0.2648828027,0.2388693258,0.2170992685,0.2000825335,0.1873478009,0.1778439431,0.1708497211,0.165878528,0.1624827172,0.1603327225,0.1591795284,0.1587840464,0.1592642166,0.1608635375,0.163747847,0.1678307341,0.1728556178,0.1784583552,0.1845210068,0.1908274818,0.1973081949,0.2038821523,0.2103601992,0.2167684293,0.2230500229,0.2291469646,0.2350542249,0.2406365279,0.2460377125,0.2511705507,0.256045909,0.2607179015,0.2650946045,0.2692757098,0.2731540032,0.276814968,0.280297433,0.283682384,0.2868508934,0.2899235682,0.2928380994,0.2956030621,0.2981967684,0.3006070131,0.3028112401,0.3047627619,0.306466654,0.307817708,0.308683963,0.3088611817,0.3086335775,0.3084615244,0.3088821806,0.3100161649,0.3112468654,0.3118814629,0.3117141657,0.3108219757,0.3094129492,0.3077489725,0.3060293786,0.3041021087,0.301908112,0.2996667208,0.29741535,0.2951851168,0.2930922469,0.2915176439,0.2902318728,0.2882741291,0.2856760209,0.282748832,0.2798094971,0.2770909234,0.2749458933,0.2732982311,0.2720369209,0.2711257656,0.2707536672,0.2706367472,0.2708309853,0.2711185046,0.2719526368,0.2726608182,0.2730854668,0.2733424721,0.2732094083,0.2725924764,0.2710377859,0.268166888,0.2634955816,0.2563863851,0.2461431016,0.2322055693,0.21361206,0.1899481306,0.1628123463,0.1341538295,0.1066474969,0.08316015697,0.06572282014,0.05408352523,0.04695698101,0.04274904712,0.04025636443,0.0389172514,0.03832405093,0.03838342372,0.03894321241,0.03995511335,0.04136029867,0.04309312238,0.04507962101,0.04735831631,0.0498778695,0.05265263449,0.05564644353,0.05881205494,0.06218580067,0.06567071557,0.06923746293,0.0728485224,0.07646459066,0.08004689278,0.08349936433,0.08682418723,0.09000877986,0.09302872312,0.09578942022,0.09844354867,0.100977097,0.1034611276,0.1059450434,0.1084628782,0.1110618269,0.1135643107,0.1160377466,0.1183936441,0.1206426007,0.122790893,0.1248676501,0.1268918128,0.1287213466,0.1304240461,0.1318982813,0.1332593235,0.1347226138,0.1362830952,0.1380829118,0.1398946692,0.1418247406,0.1436316256,0.1452544501,0.1467284596,0.1481835925,0.1497111658,0.1513357534,0.1530874421,0.1546775442,0.1563454893,0.1579390619,0.1595166721,0.1609461182,0.1622698261,0.1633059827,0.1638499088,0.1638114015,0.1629239,0.1612261582,0.1588741317,0.1561387405,0.1533782405,0.1509124391,0.1484715517,0.1460725062,0.1438488352,0.1417281555,0.1396780643,0.1374626186,0.1347476239,0.1316510622,0.1281377323,0.1247159874,0.122608057,0.1217089852,0.1204693335,0.1185714462,0.1161982897,0.1138623166,0.1114314356,0.1091714121,0.1075824602,0.1062016446,0.1043200022,0.1021693443,0.09978605091,0.09720767177,0.09442541341,0.09187510729,0.08916629092,0.08672235603,0.08413787346,0.08154932822,0.07875126162,0.07604952376,0.07325725035,0.07064381959,0.06807983357,0.06547894103,0.06276202582,0.06043484897,0.05813424788,0.05581491629,0.05379705887,0.05171147843,0.05005923444,0.0482516235,0.04699824481,0.04609594892,0.04531542221,0.04434185062
0.5604525083,0.5648269446,0.5660310991,0.5674291389,0.5688555255,0.5701795203,0.5713982008,0.5726311407,0.5735267204,0.5745477404,0.5754841844,0.5762404338,0.5769570888,0.5774961726,0.5778971329,0.57823868,0.5782417288,0.57813302,0.5776406265,0.5772379325,0.576567657,0.5758548231,0.5750481035,0.5739713168,0.5725348206,0.5703088014,0.5670547219,0.5622575309,0.5558433315,0.5483783183,0.5406610033,0.5337448449,0.5281681022,0.5240809417,0.5210646459,0.5185583366,0.5163039886,0.5141471772,0.5123504114,0.5110093685,0.5103411648,0.5103654928,0.5110983083,0.5124678255,0.5143107031,0.5163167788,0.5182079218,0.5198497388,0.5213518814,0.5227392277,0.5238115459,0.5247476433,0.5255109887,0.5260203418,0.5262722654,0.5263506313,0.5261266036,0.5254729907,0.524408249,0.5228525067,0.5205820407,0.517533433,0.5136235664,0.5087351553,0.5029007236,0.4959783488,0.4881524732,0.4797505795,0.4710037705,0.4626608775,0.4547613028,0.4474774709,0.4402321421,0.4323465697,0.4225965602,0.4094698029,0.3910154806,0.3656052891,0.3339156306,0.2990107178,0.2641574102,0.2331333278,0.2074503621,0.1873519092,0.1721332572,0.1606730668,0.1521421781,0.1459944277,0.1416967215,0.1389639596,0.1373384213,0.136651648,0.1367957494,0.1380038164,0.1404204599,0.1439995054,0.1485847128,0.1538353773,0.1596655956,0.1658097453,0.1722077355,0.1788100241,0.1854351851,0.1920798902,0.1985863416,0.2049781179,0.2111707791,0.2171305825,0.2228619946,0.2284163531,0.2337060894,0.2387805028,0.2436074962,0.2482912339,0.2528352522,0.2571783348,0.2615019244,0.2657136497,0.2698863184,0.2739871934,0.2780222306,0.2819704196,0.2858017264,0.28945384,0.2928875513,0.2960961792,0.2990106176,0.301678946,0.3040000766,0.3058520735,0.3069496022,0.3072155606,0.3069248856,0.3065403597,0.3064124931,0.3064230433,0.3060523454,0.3049534263,0.3032591709,0.3013086119,0.2992184161,0.2967630656,0.2940509508,0.2913117909,0.288592469,0.2859413395,0.2835359736,0.2813635286,0.2792033193,0.2766927051,0.2740166496,0.271272797,0.2686349511,0.2664286496,0.2646446389,0.2632121957,0.2622353521,0.2617153667,0.2618605695,0.2624260072,0.2634543452,0.2652021298,0.2664681843,0.2676008781,0.2686230428,0.2693263286,0.2696786635,0.2693957584,0.2681257355,0.2654562565,0.260719727,0.2531993033,0.2420807109,0.2269538985,0.2068437898,0.1818079671,0.153758129,0.1248439286,0.09778321702,0.07509221405,0.05860070065,0.0477557235,0.04110728626,0.03718264531,0.03480496444,0.03343662806,0.03274117957,0.03263306588,0.03286609789,0.03354842262,0.03453146838,0.03575340406,0.03723159814,0.03895117678,0.04087713452,0.043105886,0.04544396779,0.04799507254,0.05069645707,0.05346760878,0.05635660638,0.05930858297,0.06225208928,0.06515650432,0.06797452889,0.07063157468,0.07308483412,0.07542841183,0.0775928698,0.07954842923,0.08144997953,0.08326046393,0.08508946143,0.08695058086,0.08883345935,0.09071716996,0.09258942389,0.09443796169,0.09627319716,0.09809796532,0.09996915705,0.1017899039,0.1037459916,0.1056226317,0.1074728749,0.1092939452,0.1111120068,0.1128471452,0.1146685737,0.1166570359,0.1187734655,0.1210077326,0.123283283,0.1255966287,0.1279365998,0.1301848648,0.1324476031,0.134738448,0.1370313484,0.1393083879,0.1413657255,0.1432582407,0.1448995943,0.1462858821,0.1472991125,0.1477963313,0.1476236804,0.1466283869,0.1447186885,0.1419489272,0.1386170112,0.1348275446,0.1307146629,0.1265799516,0.1224735729,0.11861433,0.1154101484,0.1126076073,0.1103220581,0.1079597211,0.1055161187,0.1031234057,0.1012504749,0.1000617842,0.09905561715,0.09770574458,0.09590996424,0.0937965655,0.09153109367,0.08916731667,0.08736405828,0.0859296712,0.08439295546,0.08267414135,0.08099288018,0.07922396777,0.07716477163,0.07522342768,0.07316454538,0.0711500123,0.06891075973,0.06684466546,0.06443654357,0.06230652566,0.06011600055,0.05773662806,0.05560558543,0.05347173972,0.05136373414,0.04935709935,0.04722094312,0.04543928005,0.04342045851,0.04242760448,0.04080491257,0.03940423824,0.03875505619,0.0378627224,0.0373383177,0.03669462937,0.03641720499
0.5585268981,0.5628270446,0.5642243365,0.5656718412,0.5671790609,0.5687885242,0.5701081451,0.5713052994,0.5723054324,0.5732085837,0.5740656646,0.5749267156,0.5756790346,0.5762659781,0.5767081609,0.576952205,0.5769523079,0.5767991248,0.5764577247,0.5759887402,0.5753506872,0.5746068431,0.5737191709,0.5726238841,0.5711391374,0.5688242509,0.5654524015,0.5603942346,0.5536877258,0.5457958283,0.5378429635,0.5307756583,0.5253095292,0.5214085422,0.5185224915,0.5162370482,0.5141097809,0.5121262664,0.5104288812,0.5092325143,0.5086325471,0.508746415,0.5095726245,0.5110659221,0.5129257775,0.5150174747,0.5169303807,0.5186550983,0.5201420326,0.5214947227,0.5225713316,0.5235114017,0.5242144476,0.5246959852,0.5248765383,0.5248751595,0.5245693266,0.5238888351,0.52270965,0.5209741155,0.5185144755,0.5153229571,0.5111456256,0.5060798967,0.499967399,0.4928242217,0.4846728921,0.4759617599,0.4670435525,0.4584075624,0.4503785601,0.4429072395,0.4354570685,0.4272459511,0.4170199167,0.4033422869,0.3842744225,0.3581088232,0.325788981,0.2906207014,0.2560201252,0.2255309736,0.2006572852,0.1815718208,0.167322238,0.1567964736,0.149158074,0.1437826998,0.1401531664,0.1379525388,0.1367594836,0.1364104967,0.1368116455,0.1382381302,0.1408676835,0.1446561577,0.149353859,0.1547463927,0.1606449247,0.166874491,0.1733594031,0.1799175505,0.1865578085,0.1931768849,0.1996789137,0.2060196292,0.2122457629,0.2181664172,0.2239216745,0.229390032,0.2346463615,0.2397370593,0.2445958709,0.2492625458,0.2537521629,0.2580901599,0.2623569311,0.266562094,0.2707134703,0.2748553869,0.2789014465,0.2828427011,0.2866724883,0.2903133786,0.2937311034,0.2968922274,0.2998887037,0.3025310365,0.3048748265,0.3067799869,0.3078362197,0.3080866985,0.3077939525,0.3074163891,0.3072974703,0.3072666427,0.3068398918,0.305687352,0.3038917271,0.3018961075,0.2996872579,0.2972483177,0.2944952778,0.2917419636,0.2889510543,0.28623086,0.2837216676,0.2814938977,0.2792002778,0.2764814205,0.2736095205,0.2707236325,0.2680230793,0.2656924106,0.2638315264,0.2621623241,0.2609939545,0.2604845486,0.2605678224,0.2610797601,0.2619707831,0.2630948107,0.2642458166,0.265314955,0.2662249555,0.2668806478,0.2671377124,0.2667236916,0.2653923966,0.2625786136,0.2576911393,0.2499202221,0.2386517029,0.2233359342,0.2032559506,0.1783043052,0.1505762781,0.1223893025,0.09635074391,0.07486562395,0.05951491695,0.04955072159,0.04365571647,0.04023439166,0.03821470446,0.03708490727,0.03656892467,0.03651456021,0.03685707198,0.0375386513,0.03849876635,0.03968143514,0.04114323573,0.04279898086,0.04466387625,0.04679362885,0.04909070567,0.0515572856,0.0542003198,0.05693111995,0.05976463242,0.06263724281,0.0655076411,0.06833113015,0.07107636178,0.07369860733,0.07611958343,0.07837218362,0.08045311573,0.08234289281,0.08417785515,0.08594315566,0.08770479858,0.0894893117,0.09127050688,0.09307056596,0.09482952141,0.09662669998,0.09838208838,0.1001342838,0.1018510224,0.103664278,0.1055337027,0.1073807896,0.1092090709,0.1109730692,0.1126642059,0.1144292597,0.1161656078,0.1180411824,0.1201255334,0.12231692,0.1245898535,0.1267306528,0.1289832746,0.1311560555,0.1333288712,0.1355190981,0.1376855935,0.1399174387,0.141860929,0.1436676473,0.1452042514,0.1465347896,0.1473864842,0.1479280554,0.1477110781,0.1467255651,0.1448690057,0.1422384908,0.1389188142,0.1351370323,0.1311530792,0.1270474461,0.1230208808,0.1192823056,0.1158940494,0.1131828314,0.1109481461,0.1087705713,0.1063785664,0.104019679,0.1021211096,0.1010027807,0.1000093265,0.09876344914,0.09706417011,0.09502700647,0.09299278613,0.09077182506,0.08891878064,0.08758592219,0.08616376598,0.08462334807,0.08282884368,0.0810483944,0.07919887971,0.07727669495,0.07540700805,0.07352991424,0.0712898857,0.06929319539,0.067021924,0.06497364594,0.06278107196,0.06056530325,0.05844567799,0.05645981317,0.05468212642,0.05289476309,0.05087553457,0.04936757198,0.04754563887,0.04616785947,0.04489390567,0.04377809345,0.04265766522,0.04212754152,0.04146645829,0.04087657571,0.04076477583
0.4054277238,0.4235541704,0.424483856,0.4255508746,0.4266825499,0.427771061,0.4287253977,0.4295803637,0.4304422039,0.4311700316,0.4318012881,0.4322745954,0.4326459292,0.4329514617,0.4329775941,0.4329710147,0.4329270121,0.4326356531,0.4323132963,0.4319181062,0.4312683275,0.4307088974,0.4299387401,0.4291412388,0.4280399679,0.4263880843,0.4236977899,0.4195249069,0.413739726,0.4070883986,0.4006986047,0.3955032567,0.3917539948,0.3891056211,0.3871318602,0.3853720965,0.3835639563,0.3819005297,0.3806410591,0.3800278787,0.3799987643,0.3805228644,0.3814074563,0.3827576014,0.3844226719,0.3860368122,0.3876196525,0.388962262,0.3901652673,0.3912170428,0.392062305,0.392751574,0.3932729716,0.3935798073,0.3936389417,0.3934936076,0.3929571658,0.3920539467,0.390749029,0.3890547479,0.3867976624,0.3839077462,0.3803835229,0.3760648903,0.371030365,0.3651869075,0.3586872806,0.3517812692,0.3447968485,0.3380703378,0.3316690387,0.3255668085,0.3193816508,0.3122645637,0.303017739,0.2903323694,0.2727332613,0.2492832541,0.2213657575,0.1924776303,0.1657129897,0.1437947231,0.1271647569,0.1152323927,0.1068039106,0.1007550903,0.09644118712,0.09343632885,0.09142009783,0.09020462243,0.08959917057,0.08946346817,0.08996270524,0.09125053015,0.0934431913,0.09647776873,0.1001931273,0.1044725607,0.1091665931,0.1141707409,0.1194621113,0.1250314634,0.130707806,0.1365481574,0.142424111,0.1482949084,0.1541376312,0.1599068968,0.1655364064,0.1710092138,0.1764330546,0.1816079796,0.1865636774,0.1913476533,0.1958840174,0.2002207128,0.2043687192,0.2083290182,0.2120925486,0.2156877308,0.2191363429,0.2223591353,0.2253902874,0.2281606224,0.2307068911,0.2329246964,0.2350056884,0.2369579981,0.2387150057,0.2401821845,0.2412426469,0.2417586306,0.2417910776,0.2414097025,0.2406271274,0.2392567468,0.2371923439,0.2346413007,0.2316867635,0.2285840096,0.2256256731,0.2229439525,0.2206155903,0.2186289418,0.216807626,0.2149291686,0.2131161381,0.2114354322,0.2094612303,0.2068483073,0.203776009,0.2008259784,0.1984846736,0.196554383,0.1950902903,0.1938572202,0.192887145,0.1921917346,0.1918495527,0.1919394991,0.1922683414,0.1967119047,0.1973533313,0.1978569581,0.1982142708,0.198202719,0.197690633,0.1964831155,0.1942747478,0.1906806288,0.1851386863,0.1771264571,0.1660994973,0.1519237276,0.1342959273,0.113928228,0.09335614014,0.07460530328,0.05931568817,0.04817481757,0.0410691645,0.03678730012,0.03433499223,0.03287782466,0.03195700538,0.03144767325,0.0312108838,0.03119840711,0.03134183328,0.03171997629,0.03221340091,0.032818609,0.03352531604,0.03434745299,0.03521113077,0.03623788976,0.03736085098,0.03856344258,0.03988266365,0.04125449512,0.0427347519,0.04427681424,0.04586681647,0.0475166564,0.04917979856,0.05086300758,0.05255355226,0.05422693493,0.05591828453,0.05759633734,0.05933003049,0.06105143563,0.06285362046,0.06473483824,0.0667062009,0.0687129135,0.07074488497,0.07274795029,0.07475793393,0.07681613575,0.07884608106,0.08083052916,0.08278649717,0.08469384645,0.08651627235,0.08823139104,0.08991773195,0.09150463684,0.09294066962,0.09437482349,0.09578769272,0.09715293534,0.0984494306,0.09966403325,0.1009433708,0.102119796,0.1032794715,0.1043929023,0.1054417629,0.1063837695,0.1071203197,0.107701876,0.1081304817,0.1082724604,0.108267484,0.1079477415,0.1072280536,0.1059829874,0.1042587314,0.1019350092,0.09927106983,0.09627038457,0.09321771205,0.09024524624,0.08757826135,0.08523030093,0.08313683296,0.08093248847,0.07850014257,0.07575188017,0.07326306852,0.07161031318,0.07090821459,0.07075400223,0.07053300985,0.06975557999,0.06850008994,0.06690435977,0.06507720533,0.06331015749,0.06188218383,0.06100155216,0.05997017667,0.0589782251,0.05786656569,0.05673600589,0.05565679474,0.05445624881,0.05324036681,0.05215706441,0.05097668014,0.04975347718,0.04874744701,0.04780365851,0.04654540851,0.04582474608,0.04494637059,0.04387702406,0.04300862956,0.04174954972,0.04100644386,0.03976634443,0.03901575395,0.0381823725,0.03769887627,0.03713462886,0.0365827956,0.0358902974,0.03537613856,0.03526794653,0.03522977289
0.478181466,0.481930339,0.483151642,0.484336802,0.485664533,0.486928536,0.488241521,0.489245284,0.490160349,0.490925308,0.491627002,0.492244554,0.492790538,0.493192613,0.493437626,0.493548132,0.493561125,0.493394165,0.492987712,0.492455391,0.491702157,0.490854885,0.489837398,0.488664785,0.48722142,0.485093732,0.481689945,0.476315721,0.468835206,0.459993486,0.451303457,0.443954964,0.438427755,0.43431243,0.431159708,0.428210813,0.425227164,0.422269595,0.419993035,0.418845555,0.41890461,0.419820437,0.42142827,0.42372248,0.426543102,0.429646096,0.432454746,0.434846113,0.43683877,0.438526134,0.439904188,0.441052063,0.441836154,0.442400378,0.442594185,0.442426899,0.441927402,0.441099772,0.439728296,0.437899302,0.435423538,0.432194407,0.428130431,0.423143105,0.417198838,0.410336633,0.402666334,0.394529779,0.386156641,0.377916008,0.370035563,0.362469224,0.354851834,0.346463896,0.33603456,0.322188549,0.303422674,0.278807553,0.249580657,0.219194943,0.190861161,0.16716298,0.148815518,0.135425935,0.125852769,0.119000391,0.114123625,0.110691442,0.108378481,0.106995588,0.106281718,0.106127485,0.106582917,0.107883369,0.110160237,0.11333415,0.117253936,0.121713407,0.126590561,0.131790263,0.137285175,0.142948696,0.148781398,0.154714213,0.160649271,0.166558066,0.172474509,0.178211245,0.183789252,0.189321427,0.194672525,0.199812686,0.204769152,0.20946866,0.213921742,0.218229432,0.222444362,0.22643722,0.23031612,0.234037728,0.237606413,0.241004408,0.244171485,0.247129567,0.249742131,0.25190774,0.253783915,0.255642935,0.257618473,0.259382192,0.260522797,0.261013061,0.260916105,0.260266894,0.258845524,0.256219937,0.252193415,0.247008217,0.241238426,0.235602104,0.230714958,0.226675042,0.223595666,0.221496457,0.220066291,0.218749386,0.2176683,0.217044229,0.216260215,0.214375962,0.211770415,0.209282606,0.20747579,0.206401513,0.205754456,0.205402607,0.205226757,0.205391169,0.205720572,0.206343543,0.207123509,0.207397481,0.208291642,0.208995691,0.209495077,0.209658249,0.209433278,0.208576725,0.20681156,0.203724652,0.198712478,0.191221695,0.180777076,0.167084153,0.149784279,0.12950265,0.108198329,0.087820072,0.070186277,0.056506455,0.047152118,0.041241012,0.037704166,0.03564494,0.034412001,0.033735172,0.033439777,0.03340912,0.03367297,0.03416259,0.034841855,0.035652961,0.036637774,0.037793587,0.039052222,0.04044209,0.041964643,0.043612481,0.045366534,0.047205036,0.049094324,0.051071911,0.053061423,0.055104088,0.057088374,0.059031576,0.060949462,0.062775977,0.064550142,0.066258436,0.067949459,0.069643784,0.071472632,0.073332744,0.075290116,0.077284528,0.079278584,0.081270449,0.083210834,0.085103602,0.086905611,0.088712162,0.090417427,0.092051701,0.0936599,0.095236426,0.096739337,0.098045435,0.09921232,0.100394935,0.101621183,0.102765424,0.103755515,0.104683815,0.105620871,0.106689378,0.107833092,0.108954727,0.110084588,0.111087969,0.111922617,0.112621232,0.113062436,0.113202106,0.113066744,0.112668334,0.11164851,0.110013307,0.107820108,0.104982155,0.101711397,0.098248505,0.094641672,0.091095913,0.088065341,0.085632541,0.083473797,0.081481796,0.079084183,0.076337149,0.073795363,0.07194049,0.07108075,0.071052449,0.07145276,0.071185468,0.070320098,0.069032295,0.067464604,0.065719548,0.064616799,0.063981176,0.063375407,0.062484311,0.061534288,0.060578391,0.059697778,0.058518829,0.057357418,0.056275965,0.05515689,0.053838165,0.052715642,0.051538553,0.050454878,0.049296326,0.04813018,0.047106195,0.046169438,0.045090122,0.04379668,0.042978705,0.04189347,0.04070006,0.039890239,0.039582581,0.038729691,0.038305672,0.037453405,0.037734116,0.037263417
0.5597177374,0.5628063775,0.5642093004,0.5657512031,0.5673722555,0.5688760628,0.5702619844,0.5716065611,0.5728632741,0.5739690503,0.5748429843,0.5758004615,0.5764186716,0.577058274,0.5773517192,0.5776056849,0.5776005769,0.5774123873,0.5770400432,0.5765417661,0.5758306235,0.5750608117,0.5741667064,0.5729941325,0.5714539241,0.5690473831,0.5653489568,0.5600735837,0.5530184975,0.5447813925,0.5363885595,0.528934998,0.5230568379,0.5187265961,0.5156150726,0.513039403,0.5107091128,0.5084932582,0.5066655578,0.5053683485,0.5047705941,0.5048264575,0.5056001044,0.5070759047,0.5089602348,0.5110351224,0.512924975,0.5147095385,0.5162760511,0.51774327,0.5189055895,0.5198650459,0.5206937021,0.5211673281,0.5214681083,0.5215559803,0.5212224934,0.5205198887,0.5192198346,0.5174264085,0.5149006664,0.5115472652,0.5072897838,0.5020125664,0.4956202493,0.4881623012,0.4797774418,0.4707237649,0.461534977,0.4526221449,0.4442997799,0.4365914504,0.4289935775,0.4205808878,0.4102446885,0.3963682479,0.3769393077,0.3503686596,0.3175889428,0.281900308,0.2468607435,0.2161153598,0.1910355191,0.1717442878,0.1573074971,0.1465261528,0.1385619654,0.132843788,0.1289044165,0.1264212151,0.1249734773,0.1243628371,0.1245638459,0.125783065,0.1282010239,0.1317348392,0.1362353836,0.1413796903,0.1470815958,0.153103437,0.1594221359,0.1658781461,0.1724604925,0.1790600991,0.1855407718,0.1919250441,0.1981776386,0.2042116794,0.2100537171,0.2156824376,0.22109704,0.2263090124,0.2312544905,0.236048296,0.2407032551,0.2452037608,0.2496284463,0.2538991909,0.258131827,0.2623509379,0.2664111878,0.2704098313,0.2742731141,0.2779171338,0.2813491485,0.2845137394,0.2874891224,0.2902336117,0.2926124981,0.2944824114,0.2955553642,0.2958191499,0.2954769388,0.2950833043,0.2949086167,0.2948409809,0.2944303134,0.2933024457,0.2916101851,0.2897261387,0.2876704839,0.2852835658,0.2825524535,0.2797822764,0.2770727651,0.2744033963,0.2720000552,0.2698237589,0.2675824106,0.2650247358,0.2622201698,0.2594071212,0.2567611459,0.2544649675,0.2526125809,0.2510918283,0.2500132275,0.2495443581,0.2495929432,0.25020601,0.2511791994,0.2525885748,0.2537978624,0.2549140119,0.25584783,0.2564913469,0.2567007362,0.2562854332,0.2548731782,0.2520023134,0.2469706982,0.2391790437,0.2277859245,0.2124060023,0.1922125311,0.1673713007,0.1399679199,0.1122226718,0.08682743662,0.06609984527,0.05147166618,0.04212827667,0.03661590026,0.03338929565,0.03152877911,0.03045189914,0.02989683434,0.02980888555,0.03005904458,0.03055127992,0.03136491399,0.03236020105,0.0336008262,0.03502803131,0.03662947866,0.03845253787,0.04046344187,0.04265596724,0.04501831844,0.04744698143,0.05001096458,0.05265930107,0.05528412092,0.05787281647,0.0604199963,0.06289716394,0.0652065561,0.06737725953,0.06940830197,0.07131435822,0.07313992713,0.07490605093,0.0767805661,0.07860523327,0.08057099495,0.08247818389,0.0844195486,0.08627271955,0.08813534343,0.09000221121,0.09185032337,0.09370274741,0.09565132079,0.09749991177,0.09932890169,0.1011226348,0.1028475021,0.104531565,0.1062638843,0.1081432181,0.1101041603,0.112147247,0.1142669335,0.1162969996,0.118405232,0.1205180666,0.1226602137,0.1248449788,0.1270030783,0.1290832353,0.1310237978,0.1328323632,0.1343559633,0.1356436081,0.1366343809,0.1370951026,0.1369538004,0.1359417814,0.134195204,0.1316665168,0.1284306997,0.1248782442,0.1209830647,0.1170417672,0.1132543491,0.1097184795,0.1066324823,0.1040997396,0.1019529068,0.09972931496,0.09740746448,0.09516522297,0.09343640984,0.09214822272,0.09114017495,0.08979554996,0.0879701657,0.08598892216,0.08365646349,0.0814786989,0.07971423529,0.07841276624,0.07681759322,0.07524855969,0.07356355081,0.07185898532,0.07001395867,0.06812746369,0.06633994025,0.06443495484,0.06241411511,0.06047784255,0.0584954896,0.05640470907,0.05430542683,0.05247422095,0.05041661402,0.04843891279,0.04668216045,0.04506282124,0.0432132847,0.04162554787,0.04008401769,0.0387714698,0.03764690783,0.0365513187,0.03557896049,0.03474299329,0.03444460002,0.03399445958,0.03369761065
0.5380536044,0.5429990807,0.544135864,0.5449899301,0.5460498631,0.5469230851,0.5477242498,0.5484419043,0.5490527418,0.5496475892,0.5501940007,0.5508052202,0.5513837402,0.5518045326,0.5522665518,0.5525281309,0.5526492692,0.5524939556,0.5522302923,0.5518489539,0.5514033404,0.5508783065,0.5501818534,0.5494595195,0.5484448536,0.5469738982,0.5446671242,0.5410938152,0.5362793939,0.5306755856,0.5251673159,0.520618021,0.5172565075,0.5147964312,0.5132146661,0.5119215665,0.5107529184,0.5094819756,0.5083625537,0.5076203477,0.5073064399,0.5073063892,0.5077241112,0.5084360237,0.5096006022,0.5109696976,0.5122202142,0.5133993523,0.5144980721,0.5154431931,0.5161704897,0.516792542,0.5172465629,0.5175942637,0.5176966889,0.5175394679,0.5172313295,0.5165890499,0.5157568487,0.5145104631,0.5127681056,0.5104614468,0.5074112581,0.5036427472,0.4991243951,0.4938142904,0.4878014178,0.4812875818,0.4746205966,0.4682357795,0.462138986,0.4564958832,0.4507679759,0.4441519714,0.4355112014,0.4234646476,0.4061942775,0.3822414363,0.352022093,0.31877609,0.2857859386,0.2566650621,0.2328883368,0.2145782687,0.2008707769,0.1906352931,0.1830794044,0.1776832377,0.1740229658,0.1717260341,0.1704945739,0.1701495631,0.1707529336,0.1726402493,0.1759544718,0.1805302195,0.1861589658,0.1924814368,0.1993679167,0.2065887871,0.2141033985,0.2217548363,0.2294872037,0.2372249308,0.2447808529,0.2522071583,0.2595009486,0.2665421618,0.2733575708,0.2798937633,0.2861873891,0.2922228876,0.297931906,0.3033525864,0.3085184162,0.3134822829,0.318185846,0.3227036343,0.3269775794,0.3311522095,0.335089233,0.3388213555,0.3423919037,0.3456116175,0.3486514416,0.3513493404,0.35390603,0.3562702339,0.3581648983,0.3597735889,0.3607111047,0.3610723314,0.3609008513,0.360463302,0.3600579958,0.3596649819,0.3590960661,0.3581215634,0.3568644214,0.3554165199,0.3537902825,0.3518063951,0.3493561731,0.3467276626,0.3438741489,0.3408095628,0.3379184744,0.3359532859,0.3344360721,0.3321599651,0.3291961621,0.3256933804,0.3220831699,0.319066963,0.3168622636,0.3151679653,0.313846527,0.3129910629,0.3128125438,0.3129859194,0.3135733864,0.3167039572,0.3176641777,0.3185605262,0.3191511248,0.3193750694,0.3191070002,0.3180547385,0.3157654091,0.3118569561,0.30570615,0.296387435,0.2830884957,0.2652740701,0.2418907041,0.2128788762,0.1805441541,0.1474727498,0.1168056379,0.0913699088,0.0730409354,0.06099806529,0.05370545833,0.04935895327,0.04670213842,0.04519553686,0.04446348406,0.0444167534,0.0449019887,0.04588007512,0.04725207135,0.04896405626,0.05099043106,0.053247013,0.05583986627,0.05869547921,0.06178834084,0.06512679182,0.0686449713,0.07226212142,0.07607761152,0.07988467094,0.08378192722,0.0876952408,0.09150106453,0.09530210914,0.09890500361,0.1023873228,0.1057401994,0.108923233,0.1121165388,0.115271128,0.1185867516,0.121969152,0.1255350614,0.1289735074,0.1324761517,0.135933583,0.1392699597,0.1426241032,0.145885257,0.1492174367,0.1525079527,0.1556549842,0.158640772,0.161431332,0.1640005518,0.1664813767,0.1689662956,0.1715289745,0.1740371893,0.1763549155,0.1785318576,0.1806204055,0.1828097956,0.1850063576,0.1872604777,0.1893754992,0.1914708651,0.1934705667,0.1951675305,0.196785762,0.198122618,0.1991756136,0.1997957501,0.1997441086,0.199035984,0.1975164185,0.1951528211,0.1921103908,0.188504875,0.1844577348,0.1801532128,0.1760315659,0.1722447979,0.1689368645,0.1659589079,0.163285882,0.16049247,0.1571128414,0.1530626534,0.1485721001,0.1445002495,0.1422989409,0.141420584,0.1401242339,0.1376256702,0.134568333,0.1310572105,0.1276562273,0.1244098089,0.1219569794,0.1200102481,0.1176410458,0.1152618014,0.1124712245,0.1094704503,0.1064976225,0.1035749188,0.1009287367,0.09813619541,0.09529217039,0.09222722302,0.08946701307,0.08629928784,0.08358487088,0.08069565502,0.07762355231,0.07475642707,0.07212858275,0.06910335335,0.06661364609,0.06443691854,0.06214879762,0.06024903235,0.0583236038,0.05670564525,0.05479446593,0.05368149217,0.05341830633,0.05237681209
0.5589118795,0.5626035868,0.5640187398,0.5654021623,0.567098757,0.5685998273,0.5700050957,0.5713697809,0.5724703161,0.5735263404,0.5743537493,0.5752414449,0.5759280412,0.5764706637,0.5768566275,0.5770581807,0.5771287541,0.5769170125,0.5766054537,0.5760599634,0.5754096496,0.5746860374,0.5737844595,0.5726929783,0.5711878809,0.5688752955,0.5653312484,0.5601781269,0.5533629687,0.545433413,0.5373130804,0.5300688026,0.5243167617,0.5201735934,0.5170841132,0.5146328793,0.5123500527,0.5102044811,0.5084806111,0.5071782356,0.5065821384,0.5066496917,0.5074452089,0.5088913612,0.5108203156,0.5128938622,0.5148451244,0.5166276856,0.5181481137,0.5195751914,0.5207581888,0.5217060067,0.5224895035,0.5230851055,0.5233557121,0.5233926772,0.5230959278,0.5224444189,0.5212257804,0.5195505572,0.5171946129,0.5139258843,0.509760652,0.5046444747,0.4985247263,0.4912481872,0.4831452235,0.4743372105,0.4652778883,0.4565887166,0.4484073424,0.4408436553,0.4333135246,0.425097483,0.4149648687,0.4013212681,0.3823510949,0.3562981044,0.324007825,0.2887906345,0.2539685115,0.2232585242,0.1980707801,0.1786439639,0.1641105079,0.1532755752,0.145351276,0.1396980839,0.1358320351,0.133408584,0.1320610991,0.1315596679,0.1318236029,0.1331046957,0.1355551334,0.1392204164,0.1437392981,0.1490212247,0.1548040705,0.1608915054,0.1672299424,0.1737070956,0.180283667,0.186839194,0.1933359853,0.1996850693,0.2058736657,0.2118007604,0.2175345191,0.2230383952,0.228369067,0.2334352202,0.2383074944,0.2429793281,0.2475281266,0.2519011425,0.2562186065,0.2604563577,0.2645819615,0.2687712497,0.272782651,0.2767297768,0.2804911446,0.2840847791,0.2874850351,0.2905991534,0.2934961484,0.2961296276,0.2984203819,0.3003211571,0.3013400473,0.3015429773,0.3011426921,0.3006449555,0.3003352254,0.3001516011,0.2997124666,0.2985152387,0.2967207547,0.2947919405,0.2926802929,0.2901792529,0.2874309069,0.2847309418,0.2819283872,0.2792029375,0.2768153437,0.2747186793,0.2725604234,0.2701470636,0.2674281737,0.26465754,0.262136427,0.2599244624,0.2581528117,0.2568560676,0.2557857077,0.2553121788,0.2553838357,0.2559255276,0.256878689,0.2585374156,0.2597140149,0.2608061737,0.2617161321,0.2623827271,0.2626800493,0.2623597394,0.2609594435,0.2581429535,0.2533150808,0.2456990151,0.2344881253,0.2193338778,0.1993468788,0.1745676849,0.1470196527,0.1189238426,0.09296559941,0.071532667,0.05623895473,0.0463247183,0.04041861589,0.03697025781,0.0349288687,0.03380409083,0.03324164084,0.03316062749,0.03343902143,0.03404037533,0.03491211217,0.03605796337,0.03737825638,0.03897445282,0.04074097854,0.04275662909,0.04495612922,0.04731691074,0.04982119522,0.05245204343,0.05511711246,0.05790248985,0.06068348521,0.06342940673,0.06608487424,0.06863093858,0.07098083725,0.07317603004,0.07519944285,0.07705777774,0.07884165832,0.08060900703,0.0824056722,0.08422338149,0.08614030185,0.08800643514,0.08985200935,0.09168005629,0.09349613588,0.09532039392,0.0971382753,0.09896160084,0.1008390511,0.1026885782,0.1044940177,0.1062193535,0.1079129936,0.1095394871,0.1111940071,0.1130007714,0.1149787134,0.11704229,0.1191751426,0.1212415089,0.123336487,0.1254394478,0.12760889,0.1297897956,0.1320342011,0.1342456967,0.1361580076,0.137950385,0.139558567,0.1408802003,0.1418821407,0.1423217709,0.1422025813,0.1411995126,0.1393618891,0.1368199623,0.1335497149,0.1298103875,0.1258598513,0.1218767213,0.1179753802,0.1145118521,0.111411269,0.1088733117,0.1067305695,0.1044672299,0.1020352552,0.0998321893,0.0980992539,0.09694304496,0.09598749629,0.09476450486,0.0929699583,0.09089683671,0.08860788031,0.08646730459,0.08461250123,0.08322683644,0.08166019832,0.08024043318,0.07862357179,0.07682632472,0.07503657014,0.07305880441,0.07122581893,0.06924572036,0.06733764916,0.06526596842,0.0632337327,0.06109780706,0.058900395,0.05702483345,0.0550191766,0.05304403216,0.05104286304,0.04921470911,0.04728179099,0.04529280789,0.04388588826,0.04294230576,0.04142813194,0.04039410999,0.03936498257,0.03890862468,0.03866606236,0.03785172045,0.03744856159
0.4253550414,0.4269060348,0.427775497,0.4285000717,0.4293106358,0.4300859208,0.4307473547,0.4313851299,0.4319353566,0.4323163326,0.4328493486,0.4331896079,0.4335835711,0.4340062104,0.4342159674,0.4344030213,0.4344800667,0.4344668157,0.4343215306,0.4341042805,0.433761054,0.433368286,0.4328883584,0.4322452532,0.4313951941,0.4301476862,0.4283788615,0.4257128781,0.4218103707,0.4171715366,0.4123912998,0.4082145992,0.4049619459,0.4027352735,0.4011679817,0.3999256743,0.3987417831,0.397654289,0.3966477673,0.395977405,0.3955826613,0.3954973594,0.3957384781,0.3964368803,0.3976376984,0.3992236659,0.4007696078,0.4020196643,0.4031387177,0.4040937703,0.4048819744,0.4055304955,0.4059996734,0.4063305782,0.4064056511,0.4063402795,0.4061575357,0.4057847575,0.4052399399,0.404302428,0.4029622625,0.4011909661,0.3989046912,0.395971357,0.3924286227,0.3881428631,0.3832407042,0.3778911458,0.3722513905,0.3666720093,0.3613753104,0.3564363496,0.3515081682,0.3458805504,0.3389016555,0.329305758,0.315857739,0.2969503951,0.2728943512,0.2460645822,0.2191071309,0.1949376004,0.1749514031,0.1595578993,0.1482233324,0.1399557187,0.1340312959,0.1298979686,0.1272108745,0.1256298663,0.1248337934,0.1246425132,0.1250940335,0.1264887842,0.1289539664,0.1324695645,0.1367782585,0.1416439957,0.146915936,0.1523926969,0.1581265604,0.163894285,0.1697564273,0.1755911123,0.181314612,0.186929586,0.1924102208,0.1976553125,0.2027141711,0.2075986623,0.2123275749,0.2168447471,0.2210925794,0.2251325979,0.2289539662,0.232619988,0.2361596802,0.2395858318,0.242927807,0.2462658158,0.2494528052,0.2525680602,0.2555052054,0.2582513787,0.2607596428,0.2630416554,0.2650711033,0.2668075836,0.2682226912,0.2691570244,0.2696076163,0.2695312065,0.2691704837,0.2687185068,0.2683239913,0.2676477118,0.2665804599,0.2649407988,0.2628507363,0.2605430362,0.2581619449,0.2555206901,0.2526217419,0.2497369373,0.2469830677,0.244475313,0.2426890598,0.2420963554,0.2420776489,0.2410817344,0.2391369063,0.23672611,0.2341147125,0.2319159588,0.2305586505,0.2297038674,0.2290632468,0.2286918409,0.2286541089,0.2289186724,0.2294497566,0.2297986868,0.2307393965,0.2315807259,0.2322237902,0.2326413473,0.2327678337,0.232358277,0.2311388869,0.2286474242,0.2243580454,0.2177144836,0.2080253905,0.1948380924,0.1773395836,0.1555577899,0.131093171,0.106048824,0.08299039149,0.06417892615,0.05082791302,0.04225982241,0.03723167205,0.03430013418,0.03258215547,0.0316599256,0.03125923822,0.03127757563,0.03167903488,0.03237268503,0.03330395436,0.0344919613,0.0358783628,0.03745812784,0.03915763641,0.04115311257,0.04327113376,0.04553875173,0.04795738955,0.05046620857,0.0530694605,0.05573944611,0.0584023338,0.06108547656,0.06369391284,0.06620834264,0.06854602411,0.07075313526,0.07273224708,0.07460022923,0.0763090862,0.07801364093,0.07990593365,0.0818703786,0.08396717078,0.08597027153,0.08797800268,0.08995939286,0.09191601141,0.09378551408,0.09559193608,0.09733265868,0.09908680673,0.1007421554,0.1023197282,0.1037958433,0.105137697,0.1064573999,0.107736583,0.1091555238,0.1105971304,0.1120602536,0.1133763706,0.1146028916,0.1159334117,0.1173144374,0.1187787064,0.1202776437,0.1218309418,0.1233786295,0.1248218266,0.1261164869,0.1271513863,0.1279354417,0.1283286135,0.1280166113,0.1269040906,0.1249492595,0.1221515007,0.1188471505,0.1152728354,0.1116389941,0.1083211756,0.1052481621,0.1025936694,0.100440445,0.09862786858,0.09698639282,0.09506380417,0.0927580212,0.08984925511,0.0869119793,0.08440394411,0.08318793644,0.08323714277,0.08305490905,0.08179622584,0.0799993679,0.07818233485,0.07617288268,0.07444839495,0.0733412867,0.07256813178,0.07163548532,0.07020690177,0.06878165046,0.06705717231,0.06541729199,0.06374993721,0.06228127233,0.06065905978,0.05889866545,0.05725057863,0.05558296143,0.05352977029,0.05189539573,0.05000490387,0.04833654292,0.04666571038,0.04500139962,0.04330728731,0.0419930798,0.04020193608,0.0389805374,0.03781951794,0.0367439225,0.03582938732,0.03516917138,0.03426677689,0.03407441385,0.03348980714
0.4912578173,0.4938587351,0.4943625769,0.494927918,0.4954522128,0.4960384316,0.496489811,0.4968467929,0.4971439238,0.4973703616,0.4976259816,0.4978491736,0.4979637369,0.4980803702,0.4980120134,0.4978256939,0.4976094548,0.4972488539,0.4967984803,0.496195111,0.4956165028,0.4949233083,0.4941536595,0.493181436,0.4921023713,0.4906973573,0.4887700417,0.4859547176,0.4820138266,0.4772665718,0.4723305312,0.4681298963,0.4649721757,0.4628131196,0.4612943748,0.4601479214,0.4591165592,0.4581456427,0.4571667165,0.4563671815,0.4558780942,0.4557409689,0.4558409342,0.4562247039,0.4568410001,0.4575663569,0.4583198314,0.4589595568,0.4595654853,0.4600996396,0.4604409009,0.4606625093,0.4607642713,0.4607647519,0.4605464275,0.4601067079,0.45962507,0.4588939436,0.4578678816,0.456654657,0.4550088152,0.4529168326,0.450258217,0.4471200493,0.4433002349,0.4388786361,0.4339163018,0.4286024105,0.4231361915,0.4177961084,0.4127681861,0.408008232,0.4031498148,0.3976977781,0.3906472152,0.3809688144,0.367164681,0.3478296143,0.3232720289,0.295626946,0.2676417892,0.2423407866,0.221310428,0.2049596554,0.1927220854,0.1836058148,0.1769565176,0.172126936,0.168893957,0.1668718894,0.1657799219,0.1654401516,0.1659164804,0.1675154683,0.1704217727,0.1744741692,0.1794046812,0.18497147,0.1909525735,0.1971837261,0.2035941522,0.2100593875,0.2164603548,0.2227628674,0.2289745445,0.2349666699,0.2408135789,0.2463559619,0.2516552085,0.2567365313,0.2615938415,0.2662096321,0.2704969607,0.274589339,0.2784273648,0.2820461141,0.2855079869,0.2887917728,0.2919376301,0.2949656675,0.2978609438,0.3006354466,0.3032226092,0.3055737661,0.307767446,0.3096806992,0.3113721957,0.3127808129,0.3137222658,0.3140139797,0.3139518074,0.3139108082,0.3144630568,0.3155858609,0.316749771,0.3173002067,0.3171046889,0.3162103267,0.3148753868,0.3132333315,0.3115644923,0.3097559385,0.3078309984,0.3057895492,0.3036700036,0.301524415,0.2994805246,0.297909465,0.2964851696,0.294491666,0.2919271641,0.2890794715,0.2861454223,0.2834756481,0.281264249,0.2796271152,0.2783340807,0.2774829745,0.2771443455,0.2771261659,0.2774346482,0.2778731013,0.2786834714,0.2793526754,0.279796687,0.2800593661,0.2798924645,0.2792065838,0.2775950175,0.2746927552,0.2700376642,0.2630064578,0.2527940189,0.2389417247,0.2205064371,0.1971359151,0.1704155991,0.1422611191,0.1153571447,0.09249311451,0.07561673445,0.06440965026,0.05761787399,0.05365143174,0.05134786631,0.05008822433,0.04955938648,0.04965856779,0.05021277684,0.05122107693,0.05258823914,0.05430365648,0.05628327168,0.05853072971,0.0610003444,0.06372223116,0.06665293442,0.06979191994,0.07312071437,0.0765573419,0.08011929281,0.08365247712,0.08722491083,0.09083597538,0.09425331939,0.09758626953,0.1008245602,0.1038399223,0.1066624921,0.1093242241,0.1118642024,0.1143094174,0.1168484259,0.1193959838,0.1219766157,0.1245121379,0.1269550026,0.1294151276,0.1316939337,0.1339224126,0.1360723102,0.1381191213,0.1400805733,0.1418846242,0.14349021,0.1449953419,0.1465913995,0.1482829637,0.1500980952,0.1519830773,0.1539181822,0.1557607055,0.1573962827,0.1588413568,0.1602842301,0.1618066176,0.1634009663,0.1650609529,0.1667152132,0.1683590222,0.1698369766,0.1712782914,0.1725590485,0.1737900696,0.1746740215,0.1752297907,0.1751371414,0.174205639,0.1725731799,0.1701759215,0.1674100374,0.1645281301,0.1619330762,0.1593152089,0.1567963703,0.1543038956,0.1521237002,0.149978264,0.1477353913,0.1451883092,0.1421275676,0.1386045495,0.1351671252,0.1329316148,0.1317542665,0.1305874096,0.1285538403,0.1263349127,0.1240323549,0.1214405551,0.1191111617,0.1173486105,0.1160176526,0.1141062413,0.1118946639,0.1093942601,0.1069882205,0.1043874011,0.1014840347,0.09880676189,0.0961253239,0.09362962296,0.09098964604,0.08810129899,0.08541043027,0.08263303455,0.07991279803,0.07711814444,0.0747654968,0.07219552417,0.06955600399,0.06750301631,0.06492456624,0.06299496727,0.06087689047,0.05909716577,0.05790033478,0.05640931755,0.05526256849,0.05442179444,0.05360051738
0.5576071327,0.5621999171,0.563984988,0.5659282013,0.5677280907,0.5695168875,0.5712876275,0.5727794399,0.574211641,0.5754495715,0.5766922316,0.5777153538,0.5785521446,0.579220399,0.5796192152,0.5799815733,0.580030826,0.5799034794,0.5794557795,0.578891167,0.5780432857,0.5770494126,0.5758306793,0.5743221588,0.5723437456,0.5693087191,0.564803877,0.558162532,0.5494108692,0.5391340913,0.5286032882,0.5193244542,0.51186269,0.5064386318,0.5024013439,0.4992393651,0.4962925671,0.4934687463,0.4911430986,0.4894847872,0.4885368175,0.488840036,0.4903650496,0.4927021109,0.4956546581,0.4986606064,0.5014787841,0.5040306369,0.5060979677,0.507983977,0.5095695994,0.5107910449,0.5117842566,0.5124525583,0.5128085043,0.5128248389,0.5124269442,0.5116053772,0.5101336803,0.507975058,0.5050699414,0.5011206069,0.4961491805,0.4899874079,0.4826210242,0.4739570985,0.4642248755,0.4537365288,0.4429845587,0.4325506531,0.4227787887,0.4136574637,0.404603738,0.3947778903,0.3829573011,0.3675673491,0.3467403141,0.319043951,0.2858588905,0.250720354,0.217072153,0.1881682321,0.1652345594,0.1480425018,0.1356462963,0.1267021534,0.1203704058,0.1160336495,0.1131619734,0.1114431386,0.1105924094,0.1103482381,0.1107388321,0.111941166,0.1140885526,0.1171966878,0.1211533642,0.125700143,0.1307162852,0.136007788,0.1415355913,0.1471978499,0.1529233851,0.1586930219,0.1643675246,0.1699654746,0.1754968637,0.1808020967,0.1859374453,0.1908938002,0.1956805578,0.2002482968,0.204668229,0.2089181386,0.2130219134,0.2170089735,0.2209784156,0.224825467,0.2286187162,0.2323369457,0.2359933298,0.2395336428,0.2429763576,0.2462483954,0.2492304024,0.2520113612,0.2545218331,0.2567964749,0.2587850436,0.2602229614,0.2609476732,0.2608049297,0.2600887811,0.2590845038,0.2581311545,0.2571249463,0.255694038,0.2534117555,0.2503952779,0.2469664372,0.243605586,0.2401060745,0.2360967489,0.2325694576,0.2302918706,0.2287512926,0.2276652574,0.2264620303,0.2247906329,0.222514048,0.2200569685,0.2176289319,0.2157030303,0.2141514116,0.2129367504,0.2118210639,0.2111403286,0.2112343849,0.2119918611,0.2130606574,0.2142242823,0.2158356212,0.2169694565,0.2179944791,0.2188564222,0.2194786734,0.2196629444,0.2192325501,0.2178733092,0.2151793536,0.2105713205,0.2035748748,0.1934983498,0.1799142284,0.1624331789,0.1412293337,0.1183569823,0.0958265882,0.07582123368,0.06000429904,0.04917852307,0.04252999162,0.03876258045,0.03667850135,0.03551543733,0.03491024766,0.03464871229,0.03465972915,0.03485238097,0.03524248009,0.0357892391,0.03650381564,0.03733573579,0.03833059566,0.039491988,0.04076390648,0.04222151313,0.04375744752,0.04545649008,0.04715875079,0.04897459763,0.05088566174,0.05280837556,0.0547503457,0.05660852063,0.05843472579,0.06017259659,0.06178197978,0.06325428705,0.06460250408,0.06589182238,0.06720237458,0.06844777557,0.06971425208,0.07106761596,0.07237088193,0.07368316154,0.07500351804,0.07626688187,0.07754676362,0.07879723889,0.08004011302,0.08133006278,0.08258963825,0.08380688453,0.08487250091,0.0860362245,0.08712613327,0.08821097886,0.0895077231,0.09081564661,0.09224989044,0.09388371231,0.09562178751,0.09731396402,0.0990288729,0.1007312027,0.1024818201,0.1042040844,0.105926132,0.107476825,0.1088061157,0.1099911071,0.1109481869,0.1117658775,0.1121048682,0.111813697,0.1108655405,0.1089804368,0.1063698317,0.1033244944,0.09988714209,0.09618866004,0.09253787972,0.08927049252,0.08639108304,0.08389972159,0.08162310845,0.07951174638,0.07728311085,0.0751660387,0.07334676511,0.07239723037,0.07209937438,0.07168715605,0.07083765156,0.06956134095,0.06823739189,0.06709348257,0.06559001375,0.06466326568,0.06383029476,0.06305161593,0.06227161138,0.06109839082,0.06039987277,0.05929652415,0.05816050968,0.05716311024,0.05573718102,0.05455020305,0.05309836713,0.05205464886,0.05093099926,0.04985430994,0.04855260393,0.04752484513,0.04622926236,0.04479411916,0.04380055146,0.04281664438,0.04158599553,0.04097354315,0.0397037412,0.03913613436,0.03875590522,0.03842180528,0.03842167006,0.03778713581,0.03736771088,0.03712690676
0.5294385269,0.5317685737,0.5331775297,0.5345039779,0.5358920054,0.5371091522,0.5385877293,0.5397203324,0.5407105488,0.5416793177,0.5424007086,0.5431305025,0.5436608662,0.5441106851,0.5444114903,0.5444555616,0.5444020639,0.5441907237,0.543757584,0.5433572059,0.5426746384,0.5419468272,0.5410873125,0.5401267358,0.5388311986,0.5368710287,0.5337864255,0.5288650694,0.5220245064,0.5137547502,0.5055044747,0.4984162066,0.4928629653,0.4889143622,0.4860243529,0.483633419,0.4812751587,0.4790397141,0.4770723631,0.4755969904,0.4747838597,0.4748020492,0.4754388669,0.4769090931,0.4789770642,0.4813389387,0.4836029581,0.4855912107,0.4872522204,0.4888117856,0.4900121594,0.4909584079,0.4917414917,0.4923369198,0.4925231621,0.4924995217,0.4920873381,0.4913141686,0.4899961072,0.4880665337,0.4854926564,0.4820899683,0.4778932355,0.4726967046,0.4664909013,0.4592597661,0.451088232,0.4424073178,0.4334761405,0.424864088,0.4167874439,0.409255864,0.4017335433,0.3932984148,0.3827046132,0.368373634,0.3483559533,0.3212486194,0.2881422325,0.2528735669,0.2190738522,0.1901854748,0.1671881175,0.1499571851,0.1373455519,0.1280099307,0.121206946,0.116327753,0.1129865668,0.1108860877,0.109710347,0.1092855909,0.1095900287,0.1108673339,0.1132387487,0.1166651821,0.1209887218,0.1259627443,0.1314827877,0.1373016141,0.1434522624,0.1498114128,0.1562627933,0.1628034325,0.1693309427,0.1758872112,0.1823516024,0.1886388659,0.1947874596,0.2007213483,0.2064899558,0.2120335219,0.2173486707,0.2224241308,0.2273340425,0.2320618131,0.2366685405,0.2411439373,0.2455434364,0.2498382485,0.2540528007,0.258142816,0.2620411268,0.265731124,0.2692194995,0.2724288977,0.2754476837,0.2781667197,0.2806079032,0.2826368397,0.2842019276,0.2853215917,0.2859688304,0.2860924558,0.2855871578,0.2845894941,0.2828186538,0.280149537,0.2769193218,0.2734973702,0.2702064341,0.2669075637,0.2635423979,0.2603345692,0.2573804286,0.2547650736,0.2526669384,0.2511594536,0.249517266,0.2469819489,0.2436766271,0.2402230438,0.2371387801,0.2346092787,0.232771723,0.2314570957,0.2305987425,0.2303107951,0.2307188951,0.2314982233,0.2325862687,0.2329654729,0.2341215527,0.235201561,0.2360881119,0.2366697976,0.2367661972,0.2361648091,0.2344146332,0.2310482657,0.2254427765,0.2169665887,0.204816323,0.1887113195,0.168175889,0.1436481019,0.117630202,0.09255781665,0.07093404045,0.05436389958,0.04335028935,0.03669789867,0.03287841201,0.03067503812,0.02935699779,0.02855418808,0.02815674068,0.02805478979,0.02819476613,0.02852958683,0.02907578183,0.02976557769,0.03062263175,0.03164049649,0.0328055811,0.03413432964,0.03558350331,0.03715895684,0.03881451846,0.04051864123,0.04236324192,0.04429892888,0.04636473452,0.04848290688,0.05061406947,0.05279231115,0.05484993809,0.05685992057,0.05876672821,0.06057565983,0.06235782594,0.06413983509,0.06595113458,0.06781300677,0.06973457771,0.07169308272,0.07369419922,0.07573779271,0.07777757745,0.07986466329,0.08187116923,0.08395113579,0.08602741714,0.08810528511,0.09021434639,0.09219999472,0.09423068792,0.0961484181,0.0979090074,0.09972353265,0.1014549168,0.103217451,0.1049101028,0.1066085795,0.1083160186,0.1099985565,0.1117568758,0.1134495481,0.1152259595,0.1168721975,0.1184078843,0.1197248271,0.1207944841,0.1216963979,0.1221517522,0.1219629254,0.1210853738,0.1195070511,0.1171538323,0.1142601132,0.1109237208,0.1072185034,0.1033838206,0.09976463825,0.09651622973,0.09375360046,0.09134746764,0.08919391529,0.08692530512,0.08443947721,0.08176465736,0.07938146735,0.0775359305,0.07658939613,0.07594468103,0.07503329841,0.07364677773,0.07180013198,0.06983132429,0.06781543315,0.06626548032,0.06503764287,0.06387085624,0.06270741644,0.06129131171,0.05994933661,0.05834344209,0.05685000599,0.05543564752,0.05395022545,0.05233495801,0.05108662711,0.04936571802,0.0480238427,0.04629436482,0.0449564437,0.04350187197,0.04203775234,0.04068185228,0.03939199607,0.03830998398,0.03707009148,0.03623761297,0.03494600841,0.0341546339,0.03353327677,0.03268660325,0.0322247269,0.03193826903,0.03148315363,0.03093733151
0.4614068087,0.4644632375,0.4653030198,0.4663431561,0.4673883335,0.4683742882,0.4693046931,0.4701578976,0.471086577,0.4716552064,0.4721841236,0.4726420776,0.4728784438,0.4730391129,0.4731750404,0.4731409152,0.4730439846,0.4728287974,0.4725927132,0.472278002,0.4718701285,0.4713894608,0.4708502508,0.4701843789,0.4692255407,0.4678549262,0.4656334402,0.462226114,0.4575052554,0.4520055618,0.4466263106,0.4422240449,0.4390860464,0.437149777,0.4359238622,0.4350599742,0.4342864764,0.4335278556,0.4328853956,0.4324424256,0.4323000734,0.4325754458,0.433015687,0.4337017039,0.4345752795,0.4356087497,0.4365888882,0.437471739,0.4383635475,0.4391945549,0.4398974589,0.4404899353,0.440914371,0.4411971459,0.4413015239,0.4411782339,0.4407929875,0.4400971149,0.4390027756,0.4375219006,0.4356079287,0.4331290978,0.4301637203,0.4264723958,0.4221196144,0.4171397125,0.4114799831,0.4054548035,0.3992726736,0.3932836821,0.3876267437,0.3822569474,0.3768736513,0.370740401,0.3629203908,0.3519854213,0.3362883892,0.3145958624,0.2876983823,0.2582670023,0.2294185277,0.2043139116,0.1841924181,0.1690407204,0.157897315,0.1497675421,0.1439344732,0.1397946484,0.1371102835,0.1355020923,0.1347341819,0.1346226508,0.1353327842,0.1370494314,0.1399927572,0.1440797703,0.1490477328,0.1546125646,0.160650166,0.1670290575,0.1736733776,0.1803552078,0.1871394993,0.193946111,0.2006747514,0.2073484518,0.2139016849,0.2201602702,0.2262618771,0.2321914581,0.2379424199,0.2434295519,0.2485988213,0.2535173564,0.2581216074,0.2625182264,0.2667078519,0.2707105794,0.2744647959,0.2780967157,0.2815795217,0.2848534961,0.287973509,0.2908676011,0.2934956019,0.2958498232,0.2979899502,0.2999408994,0.301536459,0.3027663964,0.3035071116,0.303788073,0.3037135412,0.303539778,0.3034668284,0.3033561735,0.3031460483,0.3026891167,0.3018249056,0.300753676,0.2995106905,0.2979554326,0.2960988885,0.2940534833,0.2919638824,0.2898050158,0.2877749898,0.2857913889,0.2837652971,0.2812827218,0.2783854081,0.2752672799,0.2722836757,0.2695350129,0.2671901937,0.2652189606,0.2636974191,0.2627219313,0.2623005035,0.2622675953,0.2625665619,0.2614049129,0.2619811541,0.2624192721,0.262615045,0.2625833069,0.2620689386,0.2608786727,0.2586960413,0.2551042149,0.2495837242,0.241267834,0.2295196823,0.2138318501,0.1934561474,0.1685647282,0.1412420329,0.1138909222,0.0892704631,0.06965742189,0.05620160205,0.04785738911,0.04306050343,0.04033776831,0.03875959371,0.03793286787,0.03757035284,0.03762037552,0.03800809159,0.03864937656,0.03953111563,0.04066851553,0.04196420827,0.04350961678,0.04521421092,0.04717126291,0.04927479031,0.05163044211,0.05417984963,0.0568304423,0.05964668551,0.06254866002,0.0656102558,0.06866569422,0.07174764459,0.07483255624,0.07787391478,0.08084089318,0.08370828433,0.08652873833,0.08932621172,0.09211150931,0.09495987262,0.09793199561,0.100949432,0.103960623,0.1069372899,0.1099197315,0.1128069005,0.1156129251,0.1183197111,0.1209829887,0.12356132,0.1259980506,0.1283495771,0.1305811531,0.132644623,0.1345835847,0.136368227,0.138226073,0.1401780775,0.1420992149,0.1438751226,0.145538997,0.1471912218,0.1489542872,0.1506629454,0.1523118066,0.1539591905,0.1555663394,0.1570840949,0.158407456,0.159467868,0.1603204389,0.1607657702,0.1607322647,0.1601187938,0.1587863301,0.1568932078,0.1543788315,0.1515729755,0.1486237894,0.1456721906,0.1428363739,0.1402524578,0.138018059,0.1359879981,0.1339392831,0.1317087313,0.1291548959,0.1263388531,0.123252019,0.1206639537,0.1186398677,0.1168410784,0.1148822036,0.112501061,0.1098342845,0.1070896499,0.1044135233,0.1018834229,0.0997770807,0.09772818265,0.09556624501,0.09324085419,0.09093502286,0.08859513008,0.08609906445,0.08382704018,0.08144896795,0.07923615184,0.07671331272,0.07443068433,0.07204299175,0.06959190327,0.06723642015,0.06500612985,0.0628198349,0.06061853834,0.05822355771,0.05621088954,0.05414193858,0.052322392,0.05063555049,0.04921874362,0.04764388404,0.04660780175,0.04542825237,0.04464366985,0.04424729545,0.04335841085
0.456880589,0.460330195,0.461819725,0.463441398,0.465064508,0.466635226,0.468274663,0.469591777,0.470714382,0.471672542,0.47240984,0.473177977,0.473783974,0.474254036,0.474676906,0.474872894,0.475010626,0.474839996,0.474412201,0.473756707,0.472935865,0.471897424,0.47079353,0.469339954,0.467589018,0.465059424,0.4609078,0.454529513,0.445665569,0.435144718,0.424920942,0.416431183,0.410102742,0.405581919,0.402125907,0.399108382,0.39605461,0.393076288,0.390727364,0.38944293,0.389299449,0.390102386,0.3917666,0.394121613,0.397214295,0.400522871,0.403583644,0.406265282,0.408458237,0.4103579,0.411967528,0.413250995,0.414193618,0.414855041,0.415012178,0.414835697,0.414261056,0.41324188,0.411712927,0.409543449,0.40674993,0.403094373,0.398515097,0.392864187,0.386243404,0.378575468,0.370056194,0.36111515,0.352039235,0.343248656,0.334894211,0.326975883,0.31904444,0.310391438,0.299783201,0.285789139,0.267135368,0.243235116,0.215631581,0.187792097,0.162525089,0.142025563,0.126503149,0.115370551,0.107533935,0.101973947,0.098032919,0.095271485,0.093450786,0.092342408,0.09178925,0.091673216,0.092092581,0.093182455,0.095052095,0.097689782,0.100932861,0.104649509,0.108704701,0.113039901,0.117673871,0.122438121,0.127375114,0.132425516,0.137494065,0.142613289,0.147698185,0.152693441,0.15761443,0.162453116,0.16722337,0.171839963,0.176282351,0.180538175,0.184584922,0.188497495,0.192316266,0.19599132,0.199569344,0.202973862,0.206237995,0.209365479,0.212330969,0.215069426,0.217529496,0.219680367,0.221489338,0.223262683,0.225038282,0.226564808,0.227569593,0.227999402,0.227930725,0.227431916,0.226358835,0.224176218,0.220830447,0.21647562,0.211564454,0.206590155,0.202039496,0.198124194,0.194910301,0.192707221,0.191125953,0.189826589,0.188915876,0.188455815,0.187660844,0.185917298,0.183386351,0.180933484,0.179131044,0.177975148,0.177242115,0.176806417,0.176548026,0.176455047,0.176659862,0.17709683,0.177657938,0.178645101,0.179403089,0.179967731,0.180361407,0.180475222,0.18017521,0.179310298,0.177603607,0.174721993,0.170157619,0.163491268,0.154172155,0.142170739,0.127331417,0.110341438,0.092756922,0.076236472,0.062193059,0.051347032,0.043945964,0.039268772,0.036435202,0.034858829,0.033872616,0.033334115,0.033096865,0.033083123,0.033335646,0.033748127,0.034297249,0.034956255,0.035753558,0.036658205,0.037668127,0.038781529,0.040018384,0.041303248,0.042731744,0.044167337,0.045692564,0.047253383,0.048850424,0.050479356,0.052050958,0.053638838,0.055184061,0.056677136,0.058161629,0.059564775,0.060949332,0.0623674,0.063823961,0.065372921,0.06695061,0.068590894,0.070194317,0.071855489,0.073460046,0.074998215,0.076534153,0.078023214,0.079486415,0.08081622,0.082166518,0.083412673,0.084672858,0.08578404,0.086797847,0.087809797,0.088899403,0.089937974,0.09081763,0.091609952,0.092431541,0.093313793,0.0942378,0.095119384,0.096006784,0.096768612,0.097438336,0.09790819,0.098169739,0.098302123,0.098120899,0.097680786,0.096780293,0.095398625,0.093505189,0.091167392,0.088572851,0.085785927,0.082864407,0.080071688,0.077539342,0.07562039,0.07377909,0.071879419,0.069759881,0.067313707,0.065101807,0.063611752,0.062958014,0.063073078,0.063480771,0.063406491,0.062582362,0.061323864,0.059840289,0.058307091,0.057354329,0.0568494,0.056286004,0.055636894,0.05478155,0.054122755,0.053241325,0.052272018,0.051391652,0.050456481,0.049544118,0.048569898,0.047676661,0.046706463,0.045825423,0.044990213,0.043858347,0.043289862,0.042474278,0.041465379,0.040497532,0.039643,0.038910331,0.037877385,0.037342976,0.037044593,0.036030233,0.036073041,0.035476779,0.035403535,0.035192023
0.5009683471,0.5031634847,0.5034348972,0.5038916529,0.5042336317,0.5046546082,0.5049535943,0.5051442063,0.5053573573,0.5055221023,0.5055530288,0.5057435083,0.5057946363,0.5057825422,0.5057386677,0.5054830217,0.5052581908,0.5048264941,0.504352923,0.5037228363,0.5031103444,0.5024255248,0.5016148267,0.5007139617,0.499639562,0.4982802998,0.4965790432,0.4940624638,0.490599026,0.4863953612,0.4819866321,0.4781399021,0.4751548609,0.4730695579,0.4715868989,0.4704363623,0.4693651556,0.468352544,0.4673378165,0.4664717133,0.4659325235,0.4656840291,0.4656759982,0.465967299,0.4665207844,0.4672158994,0.467870375,0.4684258377,0.4689011355,0.4692897357,0.4695632841,0.4696662684,0.4696762603,0.4695726551,0.4693521335,0.4689412911,0.4684447387,0.4678318003,0.4669312754,0.4658517698,0.4643232178,0.4624348012,0.4600246283,0.4571259831,0.453609517,0.4495943152,0.445068222,0.4401788288,0.4351294762,0.4301723501,0.4254939458,0.4210519317,0.4165282438,0.411470664,0.4049693581,0.3960330317,0.3832250498,0.365058977,0.3415861974,0.3147007826,0.2868399983,0.2611820159,0.2393882693,0.2221180834,0.2090370968,0.1991801511,0.1919011169,0.1866096099,0.1830325871,0.1807806316,0.1795347598,0.1791078024,0.179542815,0.1811627253,0.1840644118,0.1881894374,0.1932793362,0.1989886815,0.2051446137,0.2115251219,0.2180525343,0.2246065323,0.2310366401,0.2374134397,0.2435602747,0.2494777409,0.2552028661,0.2606097009,0.2657601169,0.2706357378,0.2753345485,0.2797754582,0.2838979045,0.2878129848,0.2914608185,0.2949086896,0.2981675814,0.3013312878,0.3043565605,0.3073012051,0.3101243483,0.312803387,0.3153361534,0.3176798018,0.3198371103,0.3217549631,0.3234189329,0.3247290532,0.325609615,0.3258337366,0.3256627286,0.3255968625,0.326122368,0.3273094174,0.3286143498,0.3292497553,0.3291028884,0.3281637937,0.326700906,0.325048148,0.3232999679,0.3214893331,0.3195535631,0.3175475617,0.3155742769,0.3134514709,0.3114822998,0.3100119124,0.3086853537,0.3068223906,0.3043850761,0.3016676944,0.2987821985,0.2961939324,0.2941460656,0.2925712636,0.2914375812,0.2907390684,0.290469452,0.2905864584,0.2909013948,0.2903551538,0.291218651,0.2919330638,0.2924596946,0.2927810548,0.2927914852,0.2922451499,0.29084568,0.2881858116,0.2837983839,0.2770495132,0.2671761523,0.2536672332,0.2354295044,0.2119225208,0.1845851825,0.1552530967,0.1264994182,0.1014550982,0.08241142577,0.06943481556,0.06127502268,0.05636514137,0.0535088412,0.05190778643,0.05121278496,0.05130582634,0.05196248406,0.05318863332,0.05483475751,0.05688581427,0.05920602744,0.06185852947,0.06474842068,0.067931662,0.07131498374,0.07491722237,0.07872917309,0.08259371803,0.08655261855,0.09049133109,0.09443603011,0.0982706756,0.1019698744,0.105554542,0.1088833542,0.1119999815,0.114879566,0.1176141497,0.1201504877,0.1226067336,0.1250252304,0.1274700054,0.129978235,0.1323968673,0.134716533,0.1370081117,0.1391553616,0.1413031897,0.1433519793,0.1452984433,0.1471557008,0.1488325207,0.1504229454,0.1518566947,0.1534189837,0.1551476045,0.156938003,0.1589663232,0.1610538895,0.1630481519,0.1648034993,0.1663714776,0.1679296094,0.1694967055,0.1712561153,0.1730157646,0.1747324542,0.1764547444,0.1781139288,0.1797459345,0.1811659998,0.1825565571,0.1836086388,0.1842099537,0.1841189506,0.1833576751,0.1815836651,0.1789959306,0.1760605597,0.1728870365,0.170016691,0.1671797484,0.1643698266,0.1617436117,0.1591071669,0.1568424574,0.1546262803,0.1520586642,0.148960627,0.145276955,0.1415717233,0.1392191487,0.1381182463,0.137033859,0.1352695569,0.1330794554,0.1306812054,0.1284002916,0.1260231008,0.1242319411,0.122911667,0.1212557467,0.1187679501,0.1163475464,0.1137684844,0.1110107502,0.1080946056,0.1053721279,0.1026020604,0.09957029298,0.09665009873,0.09375927503,0.09074059216,0.08785364553,0.08465829247,0.08160477272,0.07899016745,0.07630213234,0.0736048813,0.07108101942,0.06848988465,0.06619845071,0.06405355303,0.06217819578,0.06063111805,0.05884881146,0.05760459608,0.05688806303,0.05584346609
0.4980845289,0.5009038992,0.5021383668,0.5033445803,0.504702637,0.5059189738,0.5070966415,0.5082066684,0.5091673461,0.5100574325,0.510753352,0.5114569235,0.5120216487,0.5122205543,0.5125273392,0.5126106218,0.5126461896,0.5124862567,0.5121516033,0.5117655889,0.5111906825,0.510603023,0.509864432,0.5089937044,0.5078671152,0.506068469,0.5033162041,0.4991141524,0.4934333989,0.4867124784,0.4803004232,0.4749497847,0.4710635566,0.4685823709,0.4670486032,0.4659454912,0.4649242534,0.4638649386,0.4630012643,0.4624246057,0.4622151186,0.4624716956,0.4629949585,0.4638136827,0.4648323568,0.4660112313,0.4671600592,0.4681981052,0.4692581899,0.4702068324,0.4710098431,0.4716621211,0.4721448317,0.4724613313,0.4725445952,0.4723921665,0.4719704703,0.4712099279,0.4701350124,0.4684696362,0.4662685282,0.4634396648,0.4598562623,0.4555816109,0.4504827657,0.4445918416,0.4378615951,0.4307744539,0.4234993392,0.4165147064,0.4099827116,0.4039775954,0.3979257695,0.3909221868,0.3819318244,0.3696469993,0.3523389949,0.3286523904,0.2994048663,0.2678329504,0.2370961455,0.2105537422,0.1893363085,0.1733499465,0.1616175742,0.153001936,0.1467966891,0.1424749105,0.1395909069,0.1378648284,0.1370255301,0.1368436171,0.1374453947,0.1390915312,0.1419444508,0.1459390583,0.1508544351,0.1563970573,0.1624497529,0.168786673,0.1753986795,0.1822009169,0.1890311504,0.1959447627,0.2027739605,0.2095403553,0.2161792209,0.2225829,0.2288401,0.2349356128,0.2408605662,0.2465409711,0.2518771895,0.25696948,0.2617670926,0.2662900161,0.2707237972,0.2748351843,0.2788321754,0.282785314,0.2864974446,0.290084642,0.2933988403,0.2964992197,0.2993786039,0.3019738539,0.3043015898,0.3064022792,0.3081010329,0.3094062833,0.3100681646,0.3102562247,0.3100180466,0.3096887611,0.3095767814,0.3095219952,0.3093267014,0.3088572333,0.3079794287,0.3069286726,0.3056181007,0.3040059006,0.3020627659,0.2998206671,0.2975323751,0.2951960291,0.2929675004,0.2908956213,0.2886628259,0.2860062535,0.2829819822,0.2798165234,0.2766041531,0.2737745754,0.271334591,0.2693147193,0.2677043574,0.2667350382,0.266322317,0.2663968632,0.2667005612,0.2667639123,0.2673803604,0.2679842154,0.2683516054,0.2684123361,0.2679979099,0.2669439467,0.2648095688,0.2611944496,0.2554332727,0.2469243646,0.2348692146,0.218910657,0.1983247142,0.1731310651,0.145548795,0.1180598551,0.09347985012,0.07404089688,0.06069661091,0.05243281135,0.04773988913,0.04507017287,0.04356957995,0.04278603316,0.04248967838,0.04253603777,0.04294549131,0.04354316193,0.04439684219,0.04546324302,0.04671788499,0.04818606934,0.04984927729,0.05166090301,0.05370656689,0.05591799613,0.05836302969,0.06093078959,0.06365015607,0.06645388537,0.06934341374,0.07227017488,0.07523907867,0.0781676367,0.08103701979,0.08383130539,0.0864769269,0.08911167231,0.09170321566,0.09427643537,0.0969320325,0.09965243215,0.1024585054,0.105257127,0.1080008885,0.1107023152,0.1133502475,0.1159685578,0.118444935,0.1209353152,0.1233044526,0.1255477262,0.1277173343,0.1297210729,0.1316848997,0.133453127,0.135169691,0.1370433767,0.1389168682,0.1408440095,0.1426424731,0.1443141431,0.1460304674,0.1477902958,0.1495804116,0.1512990135,0.1530147213,0.1546553472,0.1562167614,0.1576312616,0.1587527538,0.1597201407,0.1602284629,0.1602468293,0.1595457589,0.1582034677,0.1561173444,0.1534940263,0.1506164781,0.1476239874,0.1446301271,0.1418953062,0.1394347728,0.1373596084,0.1354971821,0.1337067012,0.1317238163,0.129185119,0.1265550861,0.1237151583,0.1211083062,0.1189905908,0.1171609103,0.1151303138,0.1127655844,0.1104542207,0.1078939548,0.1052688725,0.1030454775,0.1011159673,0.09917230601,0.09709599479,0.0950517471,0.09297382043,0.09071035449,0.08853217973,0.08615317377,0.08407339283,0.08190868459,0.07983085311,0.07739434609,0.07520912287,0.07279275008,0.07057663258,0.06835844271,0.06607148615,0.06410736179,0.06201704386,0.06005594601,0.05844011396,0.05626849875,0.05477066618,0.05376156506,0.05236924561,0.05087343785,0.04987514248,0.04937394041,0.04927466024,0.04817811878
0.5628184544,0.5655183945,0.5669393174,0.5683706501,0.5700255387,0.5714445869,0.5729463339,0.5742224816,0.5753857644,0.5765687092,0.577526349,0.5783974509,0.5790871161,0.5796595683,0.5799813687,0.5802232801,0.5801567581,0.580008279,0.5795426115,0.5790714766,0.5784811263,0.5777331229,0.5768559195,0.5757910665,0.5742329992,0.571887665,0.5683300244,0.5631324577,0.5561932405,0.5481618968,0.5399560038,0.532608105,0.5267467495,0.522470052,0.5192996171,0.5167042468,0.514310926,0.5120623715,0.5102599071,0.5088272074,0.5081715165,0.5082812244,0.5090282769,0.5104232027,0.5123223346,0.5143917718,0.5163223861,0.5180802194,0.5196899147,0.5211106622,0.5223014182,0.5232990757,0.524095083,0.524668095,0.5249701104,0.5250419519,0.5247518776,0.5239979643,0.5228169851,0.5210838463,0.5185749683,0.5152817511,0.5111067512,0.5059121444,0.4997139264,0.4923642844,0.4841206384,0.4752624794,0.4660880803,0.457345691,0.4491180613,0.4415197496,0.4339665893,0.4257085725,0.4155540793,0.4018110201,0.3825957022,0.3562981349,0.3236627714,0.2880659183,0.2528807478,0.2218150738,0.1963796499,0.1766552624,0.1618011509,0.1506454908,0.1424028444,0.136409566,0.1322764891,0.1296369931,0.1280511022,0.1273820134,0.1275289123,0.1286898534,0.1311060603,0.1346314982,0.13912259,0.1442749561,0.1499900381,0.1560550582,0.162392645,0.168903752,0.1754853713,0.1820973134,0.1886198308,0.1950471038,0.2012867801,0.2073127201,0.2131400973,0.2187514546,0.2241477559,0.2293290258,0.2342947194,0.2390868319,0.2436979894,0.2482007939,0.2526315875,0.2568900359,0.2610981982,0.2652877166,0.2694074927,0.2733907716,0.2772228339,0.2808637186,0.2843319869,0.2874950895,0.2904536525,0.293144997,0.2955731826,0.2974567707,0.2986023191,0.2988640816,0.2984556116,0.2980172803,0.29780051,0.2977052775,0.297273564,0.2961087702,0.2943628933,0.2924627546,0.2903975088,0.2879949581,0.2853084563,0.282545802,0.2797466136,0.2770853422,0.2747066119,0.2726055197,0.2704255796,0.2679393412,0.2651952836,0.2624038917,0.2597527973,0.257528451,0.2557726983,0.2543500127,0.2533304049,0.2529306101,0.2529842202,0.2536091509,0.2546017236,0.2562071242,0.2575008524,0.2586441904,0.259637118,0.2603199979,0.2606284777,0.2602893057,0.2589488442,0.2561436506,0.2512258036,0.2435150176,0.2322304098,0.2169166311,0.196724553,0.1716943425,0.144009735,0.115767348,0.08962730296,0.06814619778,0.05280910123,0.04287281699,0.03696939618,0.03351789051,0.03147552615,0.03026064039,0.0297127535,0.02955253363,0.02981791364,0.03034333472,0.03117923563,0.03224914582,0.03352222769,0.03503836098,0.03671718448,0.03864931818,0.04075803117,0.04306138706,0.04546567968,0.04802032196,0.05068011739,0.05339934938,0.05606917544,0.0587931394,0.0614307326,0.06394450139,0.0662885524,0.06853143424,0.07057986301,0.07247040014,0.07431683168,0.07607937968,0.07795166509,0.07983834596,0.08182047026,0.08373532564,0.08564248128,0.0875593641,0.08939930457,0.09125943773,0.09313724281,0.09507438607,0.09700849767,0.09885462228,0.100700656,0.1025215692,0.1042536187,0.1059864568,0.1076832162,0.1095761901,0.1115960347,0.1136415909,0.1158082266,0.1179280593,0.1200675595,0.1221891832,0.124385845,0.1266643893,0.1288953323,0.1310446982,0.133070757,0.134888875,0.1364858816,0.1378161692,0.1388357008,0.1392959626,0.1391518097,0.1381834244,0.1363281116,0.133682753,0.1304751001,0.126751414,0.12281131,0.1187722919,0.11482684,0.1113393812,0.1081513077,0.1055728732,0.103398716,0.1012028573,0.09873946044,0.09632386358,0.0946227747,0.09349174334,0.09241443563,0.09111434118,0.08928818461,0.08722703685,0.08498764236,0.08266128701,0.0808142164,0.07936104592,0.07792537622,0.07639395845,0.07463733799,0.07279211567,0.07108775102,0.06904715499,0.06719895205,0.06515413402,0.06315539853,0.06121339702,0.05916990768,0.05701154468,0.05489446592,0.05295709041,0.05076671457,0.04901664771,0.04679321946,0.04500030599,0.04292187323,0.04133274297,0.03974577206,0.03859027509,0.03755047958,0.03651858865,0.0356072883,0.03440021859,0.03412760248,0.03398696909,0.03302736061
0.5625904278,0.5669394051,0.5685616251,0.5703878313,0.5722324438,0.5739002833,0.5756474008,0.5771723355,0.5784827359,0.5796287419,0.5808355955,0.5818259943,0.5828097151,0.5835240666,0.5840638297,0.5844156648,0.5844811027,0.5843014108,0.5839883174,0.5833869431,0.5825296982,0.5815800637,0.580472823,0.5790328971,0.5769785455,0.5740859463,0.5697576518,0.5633856485,0.5550380438,0.5452359847,0.5351815011,0.5259623053,0.5184260533,0.5126462979,0.508341961,0.5047478506,0.50150318,0.4984265126,0.4959111604,0.494056615,0.4930191449,0.4932215085,0.4946828363,0.4970057022,0.4999529016,0.5029180246,0.5056725689,0.5081327313,0.5102314785,0.512111949,0.5136846011,0.5149381695,0.516023122,0.5167366309,0.5171482991,0.5172858646,0.5169779579,0.5162780073,0.5150532456,0.5130132691,0.5102494876,0.5065306434,0.5017610538,0.4958082359,0.4886709702,0.4802518575,0.4707679673,0.4604982483,0.4500161716,0.4398239741,0.4302411125,0.4212539006,0.4124857973,0.402937036,0.3915558464,0.3767097229,0.3563762056,0.3291478603,0.2961201907,0.2607340837,0.2263295999,0.1964666028,0.1722449963,0.1538146928,0.1401709498,0.1301501964,0.1228706062,0.1176729856,0.1141449479,0.1118794446,0.1105684021,0.1099925089,0.1100859065,0.1110502372,0.1129887553,0.1159651641,0.119762601,0.124222045,0.1291345105,0.1343705098,0.139865822,0.1455101868,0.1512245621,0.1569583173,0.1626668636,0.1682970269,0.173857018,0.179197608,0.1843679485,0.1893454292,0.1941412987,0.1987260607,0.2031382891,0.2074231416,0.2115444291,0.2155837068,0.2195313347,0.2234066089,0.2272284191,0.2310002695,0.2346783743,0.2382803685,0.2417391027,0.2450324778,0.2480674471,0.250861505,0.2533835938,0.2556650398,0.2577157535,0.2593017947,0.2600154748,0.2598518157,0.2591359814,0.2582210917,0.2572276399,0.256244484,0.2548169057,0.2526405278,0.2496298193,0.2462416658,0.2428948087,0.2393687202,0.2353790247,0.2318290897,0.229507972,0.2281675693,0.2270749009,0.2260420293,0.2244158031,0.222345327,0.219958015,0.2177468261,0.2158990863,0.2145885088,0.2135293224,0.2125774151,0.211986153,0.2122771685,0.2132007546,0.2144210314,0.2157335108,0.2176316743,0.2190007295,0.2201949799,0.2212313621,0.2219690752,0.2222961918,0.2220664978,0.2208896406,0.218414743,0.2141244334,0.2072798063,0.1973599478,0.1839204916,0.1663729062,0.1449248225,0.1214970964,0.09805898348,0.07678976713,0.05963456738,0.04766732641,0.04002821942,0.03559918384,0.03304547643,0.03158854605,0.03078087261,0.0303838566,0.03032326885,0.03049866258,0.03086740292,0.0314189029,0.03215076815,0.03303044606,0.03405992441,0.03524788627,0.03659199911,0.03806556725,0.03967681418,0.04141517326,0.04319470173,0.04505830857,0.04704726314,0.0489975949,0.0510297108,0.0529430371,0.05485416595,0.05653749483,0.05823673432,0.05973172609,0.06113220746,0.06248516537,0.06375351662,0.06505463569,0.06641696668,0.06776913781,0.06912542201,0.07051137447,0.07184071508,0.07316810022,0.07452240867,0.07580099315,0.07705640459,0.07842014618,0.07970921928,0.08092082197,0.08206630767,0.08322302541,0.08433212179,0.08550828028,0.0867623056,0.08819530423,0.0897289484,0.09144389095,0.09328811936,0.09511035961,0.09686751021,0.09873068844,0.1005395273,0.1023534559,0.1041728249,0.1058366245,0.1073380902,0.1085900088,0.1097396299,0.1106202568,0.1110209091,0.1107573327,0.1097356007,0.1079033386,0.1052576983,0.1021212741,0.09838725787,0.09450317841,0.09084676311,0.08729656,0.08426090098,0.08180540335,0.0794606836,0.07716341188,0.07479804849,0.07253296858,0.07070618648,0.06964968919,0.06936250852,0.06907471185,0.06808963641,0.06672455601,0.06546285211,0.06402431094,0.06272695346,0.06148019104,0.06053429293,0.05984452627,0.05899146632,0.05798278073,0.05690200294,0.05609100615,0.05485896887,0.05350509763,0.05227327032,0.05106537389,0.04984086384,0.04826652449,0.0472025159,0.04590985434,0.04452029106,0.04331225299,0.0420151128,0.0407841585,0.03957898987,0.03829422467,0.03723965356,0.03621277837,0.03523304657,0.03464537591,0.03429693853,0.03361844002,0.03301364105,0.03245665672,0.03187927839,0.03220617708
0.4259996671,0.4269159251,0.4275712197,0.428447196,0.4291059479,0.4299186648,0.4306218408,0.4312136548,0.4318160094,0.4322886362,0.4327602706,0.4332563695,0.4335612212,0.4340304469,0.4341927393,0.4343213351,0.4344043529,0.4343892498,0.4343274185,0.4340730403,0.4337497497,0.4333437911,0.4328505529,0.4322789364,0.4314092417,0.4302186898,0.4284122535,0.425830276,0.4220205249,0.4175028299,0.4127717773,0.4086674811,0.4053731681,0.4030956809,0.4014689003,0.4001218864,0.3989637367,0.3977774108,0.3967195608,0.3960230607,0.3955720191,0.3954487449,0.3956711787,0.3963745953,0.3975797329,0.3991491696,0.4006767262,0.4019354752,0.4030275978,0.4039910813,0.4048107838,0.4054341568,0.4059177674,0.4062748628,0.4063584991,0.4063174203,0.4061683164,0.4058410249,0.4052558909,0.4043672643,0.4030542105,0.4013380338,0.3990696259,0.3961873648,0.3926978882,0.3884964519,0.3836634671,0.3783927799,0.3728335032,0.3673520177,0.362151891,0.3573217291,0.3524852154,0.3470074402,0.3401387424,0.3307661976,0.3174977807,0.2989097464,0.2751408314,0.2485132246,0.2217210852,0.1975478005,0.1774287541,0.1618103878,0.1501673031,0.141548794,0.1353296114,0.130910498,0.1279517506,0.1261420333,0.1251293992,0.124797364,0.1251407243,0.1264002312,0.1287325227,0.1320867428,0.1362812354,0.1410487967,0.1462150728,0.1516158592,0.1572586141,0.1629960325,0.1687652197,0.1745677098,0.1802622857,0.1858250376,0.1912733297,0.1964778368,0.2015327971,0.2063876755,0.2111122435,0.2156229503,0.2198517237,0.2238893695,0.2276834457,0.2313594275,0.2349203855,0.2383422621,0.2416648198,0.24498986,0.248219817,0.2513394289,0.2543060194,0.2570271645,0.2595853672,0.2618720544,0.2639152993,0.265689783,0.2671163152,0.2680933398,0.2685245164,0.2684860216,0.2681271905,0.2677304843,0.2673351597,0.2667156793,0.2656600659,0.2639896106,0.2619261321,0.2596390537,0.2572588519,0.2546184865,0.2517651409,0.2488849882,0.2461593927,0.2437124219,0.2419253799,0.2414603707,0.2414534832,0.2405308347,0.2386332141,0.2362510877,0.2336556667,0.2316022172,0.2302816757,0.2294550508,0.2289083903,0.2285389277,0.2285464599,0.2289385539,0.2295114465,0.2293557,0.2303912308,0.2313780588,0.2320950515,0.2325941664,0.2328126796,0.2325185103,0.2313497424,0.2289620864,0.2248322793,0.2183413053,0.2088607921,0.1958689956,0.178634773,0.1570422583,0.132688559,0.1076224908,0.08443575168,0.0653089432,0.05165653203,0.04279462665,0.03754086542,0.03440843995,0.03256807687,0.03153690358,0.03108100569,0.03101176593,0.03139274422,0.03205808564,0.03298976637,0.03414814483,0.03551517131,0.03708925489,0.03878559516,0.0407187059,0.04283945889,0.04510477253,0.04751912163,0.04999820601,0.05260580625,0.05522921148,0.05790722067,0.06059653508,0.06317582596,0.06568064563,0.06799857187,0.07019267101,0.07220956652,0.07403692524,0.07575266657,0.07747213401,0.0793701195,0.08133824562,0.08338233609,0.08544257686,0.08742501374,0.0894340358,0.09138928195,0.09328363551,0.09507454286,0.09686787075,0.09861123565,0.1002758205,0.1018349602,0.1032963424,0.1046843762,0.106017122,0.1072992937,0.1087232908,0.11020304,0.1116590489,0.1130022761,0.1142793174,0.1156203729,0.1170372355,0.118514173,0.120045066,0.1216504845,0.1232292154,0.1246770071,0.126013166,0.127128474,0.1279351557,0.1283135493,0.1280643928,0.1269412683,0.1249376027,0.1221497519,0.1188297214,0.1152687955,0.1116441919,0.1082655422,0.105229528,0.102574397,0.1004198997,0.0986086767,0.09700874813,0.09508616664,0.09270581659,0.08980886394,0.08680188681,0.08428304771,0.08312234052,0.08327903081,0.08303880259,0.08179662636,0.08004176796,0.07821103218,0.07618929082,0.07443783196,0.07333550818,0.07269102624,0.07164427759,0.07024109778,0.06887312655,0.06719847912,0.06552249539,0.06389330194,0.06231505378,0.06076190292,0.05912389667,0.05730990824,0.05557659309,0.05382894898,0.05203169504,0.0502618392,0.04844822165,0.0467351992,0.0451032717,0.04341618132,0.04188596889,0.04036558878,0.03917854807,0.03762078091,0.03676541321,0.03579080406,0.03530284326,0.03445764668,0.03410331325,0.03373958475
0.5045917019,0.5065541243,0.5071043783,0.5075212349,0.5080483395,0.5084522848,0.508873311,0.5091965832,0.5093559313,0.5095670176,0.5096503144,0.5099453058,0.5099684992,0.5100974799,0.5099854942,0.5096975122,0.5094341559,0.509035434,0.5085124376,0.5079216104,0.5073019562,0.5065346956,0.5057656937,0.5049490145,0.5037379491,0.5023559861,0.500632188,0.4980100525,0.4943336041,0.4898335382,0.4852057938,0.4810734528,0.4779300268,0.4757061007,0.4741732751,0.4729866762,0.4717603262,0.4706252307,0.4696124421,0.4687270556,0.4681153579,0.4677502478,0.467715754,0.4680751918,0.4687430089,0.4695434979,0.4703634945,0.4710206414,0.4715500861,0.4720128956,0.4723356254,0.4725059364,0.472583796,0.4725069946,0.4722706525,0.4718788815,0.4713711762,0.4706648702,0.4697847348,0.4685624672,0.4669778594,0.4649104718,0.4623498969,0.4592499518,0.4556276971,0.4513607791,0.4465770946,0.4414868316,0.4361570731,0.4310327953,0.4261472177,0.4216148473,0.4171376157,0.4119492875,0.4051937304,0.3959388366,0.382786701,0.3641516082,0.3399860713,0.3124079777,0.2840220253,0.2577737445,0.2355010607,0.217770752,0.2043112203,0.1941278263,0.1865821533,0.1810677834,0.1772308103,0.1747590822,0.1733748197,0.1728428317,0.1732143179,0.1747313804,0.1775706727,0.1816454035,0.186686764,0.192365821,0.1984803711,0.2048188298,0.2113898696,0.2179644942,0.2244892351,0.2309083694,0.2371490079,0.2431995492,0.2490300807,0.2545551393,0.2597721193,0.2647622441,0.2695076377,0.2740475385,0.2782767421,0.2822634267,0.2859605389,0.2895770111,0.2930564476,0.2963356281,0.2995740753,0.302620328,0.3055681584,0.3083339099,0.3110214784,0.3134690615,0.3158050881,0.3179043042,0.3196972494,0.3211641083,0.3220746312,0.3223858287,0.3222766582,0.3222328084,0.3227593039,0.3239797762,0.3252718611,0.3259400384,0.3257463821,0.3247802918,0.323224139,0.3213807388,0.3194545283,0.3174886399,0.3153937052,0.3132233075,0.3110997238,0.3088382883,0.306769995,0.3052930809,0.3042039325,0.3023894867,0.2999744168,0.2971287375,0.294186214,0.291652839,0.2896068107,0.2881383944,0.2870581671,0.2863766947,0.2861979681,0.2863797787,0.2868086722,0.2863905903,0.2872089818,0.2879732248,0.2885343419,0.2889301887,0.2890519515,0.2886351884,0.2873238127,0.2846126355,0.2801396325,0.2732585915,0.263305185,0.249645351,0.2312241546,0.207363764,0.1796587671,0.149955927,0.1210389153,0.09591289106,0.07685392063,0.06383948038,0.05576805015,0.05080204417,0.04788676673,0.04624390462,0.04550372213,0.04552848085,0.04612533322,0.04726061875,0.0487924836,0.05073861624,0.053002839,0.05555753185,0.05833461257,0.0614191568,0.06471674739,0.06822756099,0.07190937001,0.07570127463,0.07957151926,0.08343451682,0.08733071041,0.09112789626,0.09476623096,0.09826298294,0.1015012422,0.1045900791,0.1073424549,0.1099358769,0.112376178,0.1147712319,0.1171754001,0.1195509199,0.1219988962,0.1243843145,0.1266599868,0.1289036951,0.1310428989,0.1331183102,0.1351440358,0.1370879935,0.1389414244,0.1406385104,0.1421616193,0.1436447578,0.1451537459,0.1468590234,0.148698127,0.1507394627,0.1527833754,0.1548125933,0.1566520186,0.1583159941,0.1599136472,0.1615948591,0.1634290334,0.1652521285,0.1671464317,0.1690438308,0.1708645447,0.1725292118,0.1740622847,0.1754639064,0.1766160554,0.1772582554,0.1772013034,0.1763321461,0.1745486926,0.1719047025,0.1689229027,0.1657085389,0.1626742624,0.159728249,0.1568418973,0.1540834568,0.1515681536,0.1492278176,0.1470307157,0.1442979015,0.1411675628,0.1374418716,0.1337343896,0.1315013021,0.1307362375,0.1299530456,0.1283263295,0.1262544915,0.1239415394,0.1215604293,0.1195214392,0.1179479301,0.1166426817,0.1148790813,0.1128549836,0.110547263,0.107838643,0.1052408942,0.1026449203,0.09989267207,0.09729953544,0.09461980068,0.09185302034,0.08918758349,0.08605084787,0.08316265457,0.08051382478,0.0776120426,0.07483175259,0.07203398342,0.06971798092,0.06725440612,0.06456385036,0.06267434039,0.06046076624,0.05892532366,0.05744330898,0.05627525142,0.05514505346,0.05389441336,0.05350644789
0.5591621926,0.5620810808,0.5636252792,0.5652781512,0.5670966771,0.5687133337,0.5703313081,0.571947735,0.5732501989,0.5746258163,0.5756876626,0.5766277318,0.5773367932,0.5778675943,0.5783338895,0.5785908683,0.5784696162,0.5783468131,0.577893692,0.5773193969,0.5766300996,0.5757782032,0.5748346976,0.573616214,0.5718950409,0.56933407,0.5653683629,0.5596000094,0.5519699136,0.543152775,0.5341943632,0.5262566632,0.5199913125,0.5154650882,0.5121229425,0.509358973,0.5068873808,0.5045866608,0.5026177042,0.5012118598,0.5005910667,0.5006925647,0.5014738644,0.5029176758,0.5048387172,0.5069688001,0.5089744461,0.5107781931,0.5124507194,0.5139595883,0.5151973538,0.5163119901,0.5171855573,0.517825475,0.5181437028,0.5181672851,0.517815858,0.5169720384,0.5155957313,0.5136757441,0.5109373402,0.5073032163,0.5027904713,0.4971798099,0.4905521108,0.4826948293,0.4739527857,0.4645928465,0.4549993892,0.4459150757,0.4373790833,0.429542693,0.4217876821,0.4133254508,0.4028425934,0.3887317871,0.3690884164,0.3423746064,0.3095831201,0.2742153069,0.2397359297,0.2097000202,0.1852942973,0.1666148776,0.152630417,0.1421996709,0.1344801112,0.1288827951,0.1250168126,0.1225027105,0.1210390558,0.120351911,0.1204637017,0.1215750997,0.1238023499,0.1271195938,0.1313447482,0.1362417304,0.1416528355,0.1473837449,0.1534375853,0.159641694,0.1659511478,0.1722897188,0.1785435618,0.1847619933,0.1908546744,0.1967576204,0.2024503899,0.2080093339,0.2133442615,0.2184905159,0.2233740858,0.2281096862,0.2327013072,0.2371670457,0.2415591228,0.2457814832,0.2499395646,0.2540596433,0.2580525866,0.2619590401,0.265692209,0.2692427989,0.2725351608,0.2756497291,0.2785068124,0.2811046055,0.2833875354,0.2851587681,0.2862147905,0.2864437608,0.2860513029,0.2855706488,0.2853998553,0.285353806,0.2849980596,0.2839208649,0.2824099055,0.2806493863,0.2787492606,0.2764132425,0.2737203735,0.2709482371,0.2682374038,0.2655388512,0.2630602239,0.2609582401,0.2588645467,0.256509672,0.2538559988,0.2511367074,0.2485266879,0.246305683,0.244539669,0.243147864,0.242129386,0.241620392,0.2416225543,0.2421524116,0.2431022672,0.2444678477,0.2456388212,0.246692839,0.2477118711,0.2483070032,0.2485251152,0.2480951513,0.2466735212,0.2438107185,0.2389237862,0.2313630622,0.2203428218,0.205416581,0.1859417083,0.1621183063,0.1359820553,0.1096680753,0.08568422022,0.0663296717,0.05277226923,0.04418376928,0.03919644063,0.03632696878,0.03468240063,0.03370106612,0.03326759604,0.03318131061,0.03334124521,0.03377581083,0.03446637995,0.03534112689,0.03635241737,0.03758734522,0.03903537247,0.04060986325,0.04241861992,0.04436716306,0.04644107929,0.04862582689,0.05093943575,0.05323931943,0.05563192308,0.05803244046,0.06037027674,0.06267299715,0.06479157466,0.06683540651,0.06875116401,0.07056365483,0.07231469279,0.07404954726,0.0757866152,0.07763340234,0.07951720058,0.08138366424,0.08322361314,0.08508920982,0.08688390804,0.08867267064,0.09047401453,0.09226672449,0.09408468375,0.09589558594,0.09762385252,0.0992963706,0.1009071674,0.1025002918,0.1040867103,0.1058195084,0.1076334678,0.1095406836,0.1115162189,0.1134311509,0.1153889129,0.1173614777,0.1193909058,0.1214329214,0.1234724725,0.1254527665,0.1273478581,0.1289993874,0.1304275631,0.1316160391,0.1325547672,0.1330268944,0.1328758847,0.1319790604,0.1303585088,0.1280662478,0.1251771753,0.1218501388,0.118298239,0.1146827613,0.1111428758,0.1079199831,0.1050965889,0.102748309,0.1006982569,0.09848161202,0.09619772277,0.09407498134,0.09261638371,0.09146812689,0.09062678476,0.08936800439,0.08770182455,0.08566265347,0.08347093537,0.08128443846,0.07951643495,0.07821897347,0.07703898172,0.0754274623,0.07396663461,0.07235520701,0.07056196973,0.06877904546,0.06693747145,0.06529128365,0.06354341704,0.06183781733,0.05990650207,0.05820475506,0.05621823099,0.05456082105,0.05284412501,0.05087523205,0.04921482706,0.04742339736,0.04597594806,0.04461088209,0.04304262785,0.04179264117,0.0411201628,0.03995157657,0.03954076956,0.03892320984,0.03814641057,0.03808055195,0.03713901746
0.562524586,0.5656423907,0.5672842028,0.5688047166,0.5706739408,0.5722373673,0.573841729,0.5753019883,0.5765908805,0.5777469807,0.5788806969,0.5797908914,0.5804428683,0.5810138383,0.5814719797,0.5815931441,0.5815634261,0.5813957977,0.5809413624,0.5804803521,0.5798875921,0.5790101841,0.578131393,0.5768602449,0.5752569855,0.5726469704,0.5689763597,0.563363789,0.5561211164,0.5476286864,0.5390474411,0.5314002394,0.5253247262,0.5209248759,0.5176867114,0.515143763,0.5128020417,0.5105293968,0.5086863497,0.5074174014,0.506804664,0.506927393,0.5077075898,0.5091501015,0.5110816502,0.5131735375,0.5151156443,0.51687431,0.5185244237,0.5200296586,0.5212524577,0.5223143565,0.523166298,0.5237531209,0.5240798202,0.5241027912,0.5237599478,0.5230385942,0.5217678341,0.5198308407,0.5172332928,0.5137707135,0.509405054,0.5040031995,0.4975358682,0.4899335598,0.4813507808,0.4721437009,0.4627495423,0.45372213,0.4453076795,0.437551328,0.4298620752,0.4214210484,0.410989073,0.3970412661,0.3776442747,0.3510783438,0.3183007438,0.2827323015,0.2477956852,0.2170754033,0.1919963418,0.1727761428,0.1584039337,0.1477110354,0.1398706677,0.1342802979,0.1304486982,0.1280456476,0.1266787948,0.1261270065,0.1263502963,0.1276072905,0.1300084407,0.1335526461,0.1380461617,0.143187384,0.1488505907,0.154867135,0.1611239504,0.1675350333,0.1740389665,0.1805406471,0.186967439,0.1933331287,0.1994916088,0.2054374752,0.2111988925,0.2167229875,0.2220844173,0.2272001672,0.2321281963,0.2368960305,0.2414624258,0.2458973726,0.2502320941,0.2545025654,0.2586334134,0.2627257887,0.2667384513,0.2705900899,0.2743153261,0.2778432902,0.2811284195,0.2841886845,0.2870262873,0.2895797859,0.2918088974,0.2935843285,0.2945101032,0.2945910998,0.2940097553,0.293409027,0.2930791118,0.2929872037,0.2926028957,0.2914515963,0.2898414558,0.2880769295,0.2860887414,0.283663324,0.2808195881,0.2779198152,0.274971776,0.2721912043,0.2697405184,0.2676638702,0.2656662173,0.2633425029,0.2607783776,0.258075264,0.2555571291,0.2533808778,0.2517219342,0.2502782435,0.2494001405,0.2488406002,0.2488474703,0.2492860933,0.2502354342,0.2514626354,0.2526042142,0.2536972102,0.2546558404,0.2552727147,0.2555531416,0.2551712151,0.2537730261,0.2508913494,0.2459873218,0.2383820982,0.2272710061,0.2122550867,0.192548658,0.1681160291,0.1410776383,0.1135926738,0.08833198425,0.06760043661,0.05290851456,0.04347651759,0.03789261001,0.03465773633,0.03277724749,0.03171798412,0.03120239158,0.03111866737,0.03139158102,0.03196423546,0.03277449698,0.0337821902,0.03507101014,0.03650688446,0.0381496429,0.04000983795,0.04208975226,0.04430542757,0.04667322985,0.0491553675,0.05171510717,0.05427943395,0.05694399414,0.05959255227,0.06211704119,0.0645343853,0.06679805707,0.06895897052,0.07092235498,0.07278446261,0.07451803998,0.07624862484,0.0780625545,0.07991158974,0.08178476618,0.08367505836,0.0855294701,0.08738030859,0.08916282232,0.09095456852,0.09277904071,0.09459800707,0.09645036173,0.09822478171,0.0999530413,0.101617201,0.1032376674,0.1047383213,0.1063428383,0.1080200379,0.1098767599,0.1118355336,0.1138541748,0.1158572578,0.1179378816,0.11994014,0.1220762905,0.1241454569,0.1263175172,0.1284007373,0.1303397472,0.1320742433,0.1335720443,0.1348385134,0.1358531659,0.1362851967,0.1360778244,0.1350886143,0.1332860729,0.1309848762,0.1279649539,0.1244925986,0.1207907757,0.1169868428,0.1132480319,0.1100151797,0.1071228251,0.1047094167,0.1025907445,0.1002956252,0.09786298095,0.09575318652,0.09423449868,0.09314098437,0.09227786362,0.09099434213,0.08909871453,0.08705580366,0.0847328368,0.08245491767,0.08054649371,0.07928713099,0.07789621563,0.07633213897,0.07465397782,0.07299980545,0.07127964786,0.06934550908,0.06728496384,0.06542700989,0.06351774952,0.06189786785,0.05985578007,0.05793903597,0.05591444153,0.05409920829,0.05177658202,0.05033298118,0.04813013201,0.04665643752,0.04467262221,0.04304726013,0.04137153954,0.0402899742,0.03911030464,0.03787521722,0.03738456627,0.03644439492,0.03588186188,0.0353607313,0.03529356934
0.5563714305,0.5599401083,0.5614862558,0.5631353292,0.5649741861,0.5665293549,0.5682347403,0.5698096849,0.5710690403,0.57248583,0.5734786655,0.574416377,0.5751450771,0.575691709,0.5760873636,0.576301773,0.5762614099,0.576051518,0.5755933516,0.5750428843,0.5743666866,0.5734913377,0.572579032,0.571303681,0.5696054033,0.5669937791,0.5630351587,0.5572186346,0.5494847015,0.5405450854,0.5315923187,0.5236560029,0.5174604749,0.5130231237,0.5098678134,0.5072879419,0.5049439926,0.5027497335,0.500923377,0.4995795792,0.4989768314,0.4991448818,0.4999686551,0.5014537433,0.5033990522,0.5055238319,0.507547756,0.5093522133,0.5110113461,0.5125183678,0.5137691445,0.514833369,0.5157106906,0.516294108,0.5165889224,0.5166404347,0.5162781247,0.515418001,0.5140116619,0.5120426716,0.5092528728,0.5055982195,0.5010442315,0.4954072485,0.4886646538,0.480817112,0.4720045176,0.4625782937,0.4529591899,0.4437697758,0.4351618858,0.4272576965,0.4194362744,0.4108482771,0.4002628263,0.3860308742,0.3662473851,0.3393309518,0.3065258348,0.2712020391,0.2368671103,0.2070535731,0.1829656904,0.1646515224,0.1510779395,0.1410472712,0.1337177522,0.1284756954,0.1248934181,0.1226350886,0.1213637197,0.1208472488,0.1211082529,0.1223261196,0.1246450108,0.128083329,0.1324192946,0.1374030474,0.142863592,0.1486738676,0.154757205,0.161004675,0.1673239918,0.1736899059,0.1799644936,0.1861645751,0.1922566823,0.1981539715,0.20385092,0.2093956476,0.2146991426,0.2198316621,0.2247184663,0.2294380509,0.2339953617,0.2384678594,0.242797495,0.2470126845,0.2511584774,0.2552377191,0.2592183639,0.2631042313,0.2668085274,0.2703658859,0.2736484099,0.2767382344,0.2795467553,0.282152614,0.2843733161,0.2861222016,0.2871126789,0.2873197192,0.2868958561,0.286368289,0.2861652593,0.2860923064,0.2856797476,0.2846054222,0.282999154,0.2812315076,0.279285416,0.2769493454,0.2742512758,0.2714236541,0.2686837284,0.2659601977,0.2634981444,0.2613807188,0.2592118016,0.2568121789,0.2541110404,0.2513737003,0.248715288,0.2464093502,0.2446322088,0.2431651532,0.2421128749,0.2416088178,0.2415404032,0.2419465027,0.2428817783,0.2441513618,0.2452765552,0.2463353106,0.247211876,0.2477515232,0.2479435973,0.2474272385,0.2459673881,0.2430394366,0.2380786605,0.2303990264,0.2193452926,0.2043478238,0.1848202798,0.1610382263,0.135025285,0.1089381946,0.08532326406,0.06637610708,0.05322325976,0.04493025439,0.04019366328,0.03746521956,0.03591479008,0.03503210166,0.03463767222,0.03455750262,0.03476982336,0.03525199226,0.03592838251,0.03678296868,0.03785864628,0.03909569264,0.04053481878,0.04212301699,0.04394719791,0.04586361595,0.04795407625,0.05015738226,0.05244097291,0.0547920698,0.05719336149,0.05961518502,0.06195428511,0.06421507469,0.06631359789,0.06836225947,0.07028154336,0.07205724302,0.07377661252,0.07542532093,0.07720074331,0.07900493993,0.08084712933,0.08267605356,0.08451799799,0.08629669188,0.0880610109,0.08984180126,0.09158971788,0.09338129317,0.09519840521,0.09691656444,0.098611189,0.1002868213,0.1018568373,0.1034111902,0.1049498024,0.1066475241,0.1084586342,0.110341263,0.1122435594,0.1141669913,0.1160820824,0.1180287883,0.1199648334,0.1220238276,0.1240045818,0.1259193091,0.1277779301,0.1294204343,0.1308653397,0.1320265206,0.13292204,0.1333613868,0.1331833517,0.1323701024,0.1306725044,0.1284034045,0.1255348359,0.122217851,0.1187448829,0.1151221747,0.1117367262,0.1084848071,0.1056956918,0.1034143065,0.1013125263,0.09918802164,0.09699472019,0.09474515565,0.09330228557,0.09230995126,0.09143713268,0.09017800247,0.08850848254,0.0864733361,0.0844756078,0.08225028829,0.08049586789,0.07916925561,0.07788983126,0.07655299723,0.07497141759,0.07330851573,0.07175738957,0.06994656955,0.06827583665,0.06638012205,0.06483600791,0.06311082161,0.06129571768,0.05947267807,0.0575822787,0.0557210051,0.05399589522,0.05232608624,0.05047576459,0.04892441123,0.04743420562,0.04578948234,0.0444074532,0.04362187617,0.04309381098,0.04167209646,0.04080567843,0.04046167486,0.04002367096,0.03974956638,0.03926291442
