1000,1005,1010,1015,1020,1025,1030,1035,1040,1045,1050,1055,1060,1065,1070,1075,1080,1085,1090,1095,1100,1105,1110,1115,1120,1125,1130,1135,1140,1145,1150,1155,1160,1165,1170,1175,1180,1185,1190,1195,1200,1205,1210,1215,1220,1225,1230,1235,1240,1245,1250,1255,1260,1265,1270,1275,1280,1285,1290,1295,1300,1305,1310,1315,1320,1325,1330,1335,1340,1345,1350,1355,1360,1365,1370,1375,1380,1385,1390,1395,1400,1405,1410,1415,1420,1425,1430,1435,1440,1445,1450,1455,1460,1465,1470,1475,1480,1485,1490,1495,1500,1505,1510,1515,1520,1525,1530,1535,1540,1545,1550,1555,1560,1565,1570,1575,1580,1585,1590,1595,1600,1605,1610,1615,1620,1625,1630,1635,1640,1645,1650,1655,1660,1665,1670,1675,1680,1685,1690,1695,1700,1705,1710,1715,1720,1725,1730,1735,1740,1745,1750,1755,1760,1765,1770,1775,1780,1785,1790,1795,1800,1805,1810,1815,1820,1825,1830,1835,1840,1845,1850,1855,1860,1865,1870,1875,1880,1885,1890,1895,1900,1905,1910,1915,1920,1925,1930,1935,1940,1945,1950,1955,1960,1965,1970,1975,1980,1985,1990,1995,2000,2005,2010,2015,2020,2025,2030,2035,2040,2045,2050,2055,2060,2065,2070,2075,2080,2085,2090,2095,2100,2105,2110,2115,2120,2125,2130,2135,2140,2145,2150,2155,2160,2165,2170,2175,2180,2185,2190,2195,2200,2205,2210,2215,2220,2225,2230,2235,2240,2245,2250,2255,2260,2265,2270,2275,2280,2285,2290,2295,2300,2305,2310,2315,2320,2325,2330,2335,2340,2345,2350,2355,2360,2365,2370,2375,2380,2385,2390,2395,2400,2405,2410,2415,2420,2425,2430,2435,2440,2445,2450,2455,2460,2465,2470,2475,2480,2485,2490,2495,2500
0.5478998216,0.5534743045,0.5548414856,0.5564622618,0.5581076017,0.5597435842,0.5612322714,0.5627038482,0.5639207618,0.5649871385,0.5659245028,0.5667244284,0.567338176,0.5678502702,0.5682614768,0.5683648346,0.5684336578,0.5681545883,0.5678519284,0.5673011742,0.5667189723,0.5659314889,0.5649761399,0.5638582413,0.5623550916,0.5599794866,0.5562594534,0.5508042529,0.5435462995,0.5351390849,0.5266249461,0.5191313548,0.5133901493,0.5093134487,0.5065068758,0.5041775849,0.5020451279,0.5000094087,0.4983352388,0.4971700139,0.4966160687,0.4968239978,0.497743571,0.4991992626,0.5011619056,0.5032805632,0.5052459225,0.5070771404,0.5086845619,0.5101166714,0.5113201382,0.512252186,0.5130248305,0.5135417525,0.5137675585,0.5137510646,0.5134062731,0.5125466235,0.5111737172,0.5092462485,0.5066449565,0.5032005901,0.4988724168,0.4935093669,0.4870694315,0.4795967669,0.4711361471,0.4620406649,0.4527626478,0.4438874659,0.4356155056,0.4280422928,0.4204885715,0.4119896278,0.4013555564,0.3871500694,0.3675770417,0.3409687663,0.3083791379,0.2732799026,0.2391105901,0.2093706801,0.1853616574,0.1671974525,0.1538219515,0.1440604376,0.1370143892,0.1320738955,0.1287865846,0.1268269223,0.1258218335,0.1255769342,0.1260195559,0.1274683655,0.1300756048,0.1337748352,0.1383580456,0.14361926,0.149340916,0.155360992,0.1616429029,0.1680811048,0.1745226409,0.1810194951,0.187389122,0.1936628673,0.1997807144,0.2056494822,0.2113214343,0.2167895673,0.2220048736,0.2270611561,0.2319028491,0.236543988,0.2410503499,0.2454009049,0.2496793272,0.2538697231,0.2580306052,0.2620972067,0.2661186871,0.2700398292,0.2738008243,0.2773462698,0.2806997934,0.2838251367,0.2867190844,0.2893190254,0.29163329,0.2934651599,0.294542411,0.294782866,0.294397734,0.2938845888,0.293636932,0.2935100577,0.292993265,0.2918310184,0.2900079192,0.2879526174,0.2857263494,0.2833226668,0.2806425518,0.2778974362,0.275180817,0.2725074619,0.2700403312,0.2677975533,0.2654863667,0.2628573166,0.2600204683,0.2571906247,0.2544483452,0.2521140746,0.2502059895,0.24859057,0.2474261138,0.2469109023,0.2468718101,0.247342589,0.2482982976,0.2511140658,0.2519387484,0.2527139834,0.2535113618,0.2540823224,0.2542364102,0.2537381957,0.2522538007,0.249119241,0.2439425323,0.2360362694,0.2245942881,0.2093376158,0.1894657547,0.1649580439,0.1380256804,0.1110698888,0.08665722942,0.06695459426,0.05317896886,0.04455981606,0.03954401061,0.03669024736,0.03504816697,0.0341710033,0.03375499569,0.03374207906,0.03401180262,0.03459895682,0.03542774998,0.03646586743,0.03772569176,0.03915777614,0.04078070114,0.04262497607,0.04469369615,0.0468977364,0.04924954235,0.05169152626,0.05426077687,0.05688876311,0.05954859973,0.0621822177,0.06469159668,0.06714799349,0.06938227154,0.07154541182,0.07352119221,0.07536270954,0.07708508168,0.07881403118,0.08052964362,0.08229995649,0.08411115237,0.08593052846,0.08773166895,0.08951240273,0.09125108102,0.0929850692,0.09473926575,0.09652176765,0.09837847779,0.1001586906,0.1018783532,0.1035861975,0.1052516112,0.1068659891,0.1084955711,0.1103199744,0.1121483731,0.1141941449,0.1161925167,0.1182012155,0.1202023976,0.122185571,0.1241926406,0.1262747807,0.1283933673,0.1304158857,0.1322478389,0.1339437676,0.1353636774,0.1365340861,0.1374019433,0.1377933465,0.1376308567,0.1366300692,0.1348573708,0.1322668564,0.1292379011,0.1256409218,0.1217832007,0.1179610898,0.1141168191,0.1106592641,0.1076043156,0.1050698574,0.1029761881,0.1009055273,0.0986902154,0.0964773967,0.09473088611,0.09365998669,0.09271642775,0.09140820441,0.08974354924,0.08781744721,0.08578271908,0.08368722918,0.08195913324,0.08073387527,0.07923897777,0.07777247079,0.07621376775,0.07449928241,0.07283224903,0.07104054604,0.06924183064,0.06743522907,0.06546565053,0.06351189507,0.06153518218,0.05976385306,0.05772186903,0.05564889817,0.0539344016,0.05221415984,0.05012142795,0.04858211542,0.0469222377,0.04518346318,0.04373218322,0.04271801182,0.04146500322,0.04022993727,0.03971012829,0.0388843306,0.03813614564,0.03832132996,0.03771733452
0.5275531244,0.5297430627,0.5309651526,0.5324905625,0.5338098002,0.5351057809,0.5365383051,0.537704144,0.5387175443,0.5396471062,0.540445643,0.5411137226,0.5417216334,0.5422100806,0.5424722225,0.5425249885,0.5425263743,0.5422954491,0.5419577751,0.5415788928,0.5408970549,0.5401926448,0.5393352911,0.5384112636,0.5370903222,0.5352235044,0.5322168732,0.5273572825,0.5206361619,0.5125370145,0.5044311247,0.4974225106,0.49195197,0.48804247,0.4851063766,0.482715698,0.4803625583,0.4781091803,0.4761159471,0.4746399791,0.4738753294,0.4738332987,0.4744931108,0.4758910644,0.4779360006,0.4802496938,0.4824421486,0.4844465252,0.486083852,0.4875983011,0.4887784739,0.4897534803,0.490564365,0.4910875526,0.4912981711,0.4913084862,0.4908928012,0.4900940885,0.4888299494,0.4869339494,0.4843828869,0.481026206,0.4768903089,0.4718220652,0.4657170684,0.4585337149,0.4504769788,0.441902191,0.4331275333,0.4246047279,0.416649498,0.4091962727,0.4017706699,0.3934169693,0.3829570521,0.3688074982,0.349015105,0.3221472239,0.2892989789,0.2542854438,0.2206691201,0.191906326,0.1690350713,0.151800054,0.1391519602,0.1297657776,0.1228670102,0.1179037364,0.1144951897,0.1123227445,0.1110672184,0.1105848983,0.1108482817,0.112081478,0.1144065252,0.1177896779,0.1220790615,0.127007453,0.1324605315,0.1382512332,0.1443350736,0.1506333601,0.1570590393,0.1635715967,0.1700618723,0.176551786,0.1830388751,0.1893148517,0.1954211279,0.2013549927,0.2071131123,0.2126454849,0.2179292115,0.2230154274,0.227859059,0.2325976372,0.2372019872,0.241640566,0.2460388534,0.250298729,0.2544891575,0.2585319569,0.2624057936,0.2660498505,0.2694780684,0.2726789868,0.2756227483,0.2783157426,0.2807451416,0.2827221869,0.2842286624,0.2853507294,0.2860078062,0.2861003139,0.2856238135,0.2846218061,0.2827874602,0.280174765,0.276908671,0.2735504547,0.2702761881,0.2669634377,0.2636087252,0.2603763927,0.257461738,0.2547931653,0.2527790531,0.2513147178,0.2497340264,0.2472554086,0.2440014176,0.2405981844,0.237494146,0.2350535963,0.2332583126,0.2319838427,0.2311382711,0.2308833318,0.2312995778,0.2320466333,0.2331268863,0.2335631938,0.2347504743,0.235880051,0.2367642507,0.2373387987,0.2374305461,0.2368092284,0.2350557436,0.2317626709,0.226186496,0.2177705603,0.2056805553,0.1897276726,0.1692974189,0.1448701559,0.1189476088,0.09388847261,0.07219260043,0.05553217355,0.04441884717,0.0376384386,0.03374981938,0.03151345499,0.03014452616,0.02934272014,0.02889850929,0.02877280483,0.02891300106,0.02925604467,0.02979284307,0.03047436678,0.03132731703,0.03232393332,0.03350686076,0.03486840364,0.03633554299,0.03787490475,0.03953638322,0.04123573832,0.04308884196,0.0450141376,0.04706719359,0.04920218472,0.05136118562,0.05351629323,0.05559382531,0.05760973403,0.05952129025,0.06136073399,0.06314224355,0.06492821179,0.06676454443,0.06864134811,0.07058536151,0.07258392043,0.07462786022,0.07671592718,0.07877249533,0.08088977452,0.08291468229,0.08504680589,0.08716113838,0.08929759074,0.0913630663,0.09340485627,0.09539061862,0.09729543319,0.09906675478,0.1008635816,0.1026058134,0.1043367092,0.1060551564,0.1077081629,0.1093936032,0.111101869,0.1128063622,0.1146220693,0.1163148014,0.118000216,0.1195220139,0.1209105949,0.1219546037,0.1228299555,0.1232833576,0.1232134044,0.1223218333,0.1207210581,0.1184133916,0.1155095165,0.1121951363,0.1085198426,0.1047400201,0.1011384919,0.09787990592,0.09514298919,0.09266681957,0.09051481866,0.08827666948,0.08575602062,0.08310706608,0.0806657726,0.07887650721,0.07794357507,0.07738169068,0.07642508066,0.07497953674,0.07313516227,0.07107788068,0.06914661998,0.06757562683,0.06636302795,0.06535545057,0.06396349128,0.06263073242,0.06118466737,0.05964974354,0.05818027321,0.056654591,0.0551311856,0.05364812057,0.05232075098,0.05060034746,0.04905883989,0.04766305768,0.04594603929,0.04461112489,0.04323580472,0.04188303177,0.04070487363,0.03934315698,0.03831634067,0.0369194105,0.03598439892,0.03515314078,0.0343525943,0.03420324821,0.03347425694,0.03315170469,0.03254331573,0.03204992318
0.5656143792,0.56907444,0.5705781268,0.5720157256,0.5737334102,0.5753061373,0.57670098,0.5781412135,0.579201467,0.5802531622,0.5811208362,0.5820282457,0.5827133487,0.583112246,0.5835102735,0.5836062591,0.5835872264,0.5834507947,0.5829899512,0.5823700584,0.5817404775,0.5809197538,0.5800577396,0.5788109464,0.5772447674,0.5748666587,0.5712146341,0.5658136167,0.5585611546,0.5500229761,0.541446251,0.5340518451,0.5284545098,0.5245479657,0.521879951,0.5196152705,0.517580482,0.5156862433,0.5140399214,0.5129605383,0.5123372735,0.5125641668,0.5134308811,0.5149030681,0.516891926,0.5190341772,0.5210100074,0.522717953,0.524288885,0.5256774358,0.5268480782,0.5278002464,0.528538368,0.5290377851,0.5292378553,0.52914674,0.5287735838,0.5279473051,0.5265983514,0.5247162268,0.5220580924,0.5184654019,0.5140768186,0.5085931825,0.5021498563,0.4946204463,0.4861027602,0.4769637837,0.4676466115,0.4586652824,0.450268546,0.4424167566,0.4346203139,0.4259996761,0.4152926132,0.4009255955,0.3809993996,0.3539520984,0.3208370168,0.2851687278,0.2503918844,0.2201173861,0.1957909563,0.1773935194,0.1638877045,0.1541145642,0.1471395718,0.1423222557,0.1391800229,0.1373781703,0.1365122962,0.1364001904,0.1370102545,0.1386141675,0.1413923078,0.1453058122,0.1501906633,0.1556741576,0.1616888287,0.1679753825,0.174518392,0.1811846822,0.1878930533,0.1945734077,0.2011569088,0.2076073242,0.213939078,0.2199295234,0.2257926508,0.2313584793,0.23673041,0.2418829739,0.246808574,0.2515561882,0.2561061743,0.2605600069,0.2649084432,0.2691681117,0.2734239293,0.2776079157,0.2816821004,0.2856490875,0.2894542895,0.2931243225,0.2965273896,0.2996987402,0.3026609447,0.305303364,0.3076710968,0.3095385228,0.3106412509,0.3109467307,0.3106341492,0.3102045922,0.3100332365,0.3099449717,0.3094743465,0.3082002598,0.306362424,0.3042855801,0.3019910344,0.299413802,0.2966360956,0.2937390751,0.290869556,0.2880941627,0.2855534051,0.2832064652,0.2807597977,0.2779723878,0.2749925195,0.2719491877,0.2691359389,0.2667035076,0.2646252489,0.2629523514,0.2617207678,0.2610463568,0.2608992555,0.2612982944,0.2620911619,0.2632916358,0.2643890913,0.2653713273,0.2661564271,0.2666472734,0.2667604642,0.2662499238,0.264673888,0.2616229138,0.2564118335,0.2483279287,0.2366938736,0.2210557833,0.20062601,0.1756073585,0.1480517065,0.1203721853,0.09522935337,0.07489688797,0.06062672645,0.05156979634,0.04632604574,0.0433247484,0.04160013269,0.04071154336,0.04030834093,0.04034773927,0.04070974645,0.04136607355,0.042266226,0.04341952039,0.04476570865,0.04635675958,0.04812441217,0.05013345271,0.0523476564,0.05465043242,0.05720963509,0.05985465195,0.06260701094,0.06536252833,0.06818271972,0.07091716118,0.07356180133,0.07615992251,0.07853668749,0.08077628162,0.08285921342,0.08480445279,0.08661794709,0.08841574042,0.09016853396,0.09195793606,0.09377878438,0.09555483917,0.09735053703,0.09918091894,0.1009489345,0.1027340179,0.1045432764,0.1063648628,0.108244845,0.110136865,0.1119840313,0.1137500029,0.1154949303,0.1172178357,0.1189889717,0.1208755855,0.1228688787,0.1249869956,0.1271174447,0.1293158807,0.1314075418,0.1334871446,0.1355957127,0.1377014526,0.1398100979,0.1418442908,0.1437360477,0.145487501,0.146879124,0.1480592522,0.1489317793,0.1493368883,0.1489945063,0.1479616736,0.1460624223,0.1434722304,0.1402676217,0.1365617799,0.1326874503,0.1286902285,0.1247865808,0.1212106427,0.1180073021,0.1153379327,0.1131025087,0.1108527697,0.1084424464,0.1061366311,0.1044572376,0.1032527869,0.102170553,0.1008711416,0.0991774002,0.09722694222,0.09506219387,0.0930239224,0.09113572609,0.08977750666,0.08820199851,0.08668610553,0.08499271247,0.0831631397,0.08136299882,0.07954392256,0.07771018722,0.07577992366,0.07390464295,0.07172930643,0.06957676965,0.06760494841,0.06564686519,0.06344606998,0.06155882546,0.05966043989,0.05763132974,0.05590546034,0.05406643743,0.0524169227,0.05077647864,0.04932548968,0.04850225275,0.04769324883,0.04660326633,0.04591856459,0.04520719018,0.04426945566,0.04407098832
0.469175299,0.466716076,0.468307501,0.469972646,0.471650077,0.47352474,0.475165768,0.476705613,0.478041285,0.479301373,0.480260187,0.480951191,0.481611359,0.482109114,0.482386703,0.482478479,0.482450636,0.482179733,0.481813391,0.481165126,0.480288293,0.479287321,0.478043554,0.476668752,0.474799289,0.472097739,0.467728959,0.460890109,0.451462392,0.440367228,0.429584022,0.420568864,0.413926703,0.409212322,0.405604142,0.402460352,0.399356098,0.396198997,0.393798774,0.392521573,0.392349817,0.393207671,0.39488584,0.39739963,0.400537479,0.403942566,0.407114771,0.4098154,0.412123206,0.414133747,0.415829869,0.417203139,0.41819209,0.418784201,0.418992117,0.418801033,0.418213259,0.41705385,0.415371333,0.413123573,0.410158568,0.406275699,0.401464219,0.395492397,0.388532579,0.380513481,0.371672763,0.36231323,0.352836366,0.343716116,0.335047435,0.326841052,0.318639091,0.3097168,0.298752916,0.284397989,0.265304769,0.240953173,0.213119271,0.185220915,0.160149362,0.139957408,0.124805604,0.113958091,0.106370265,0.100955524,0.097157038,0.094473626,0.092723141,0.091680698,0.091140797,0.091026231,0.091420965,0.09247599,0.094286914,0.096827905,0.099947462,0.103504649,0.107431203,0.111649348,0.116143292,0.120815488,0.125630982,0.130572796,0.135558263,0.140572575,0.14558259,0.150502326,0.155380981,0.160178243,0.164891629,0.169478958,0.173887639,0.178127437,0.182173073,0.186103933,0.189899548,0.193561496,0.197114834,0.200536787,0.203857534,0.206991552,0.209956578,0.212731413,0.215211677,0.217385017,0.219216874,0.22101759,0.222821365,0.224370007,0.225415156,0.225917987,0.225825041,0.225388958,0.224294065,0.222132205,0.218845544,0.214494674,0.209670679,0.204716944,0.200200682,0.196243601,0.193104581,0.190820751,0.189245579,0.187926624,0.186998501,0.186491785,0.18566658,0.183786963,0.181249868,0.178765354,0.176939349,0.175739106,0.174914549,0.174457548,0.174120345,0.174011101,0.174144903,0.174513681,0.175154614,0.174738809,0.175791243,0.176628213,0.177124787,0.177291398,0.177038949,0.176284768,0.174628193,0.171855404,0.167420834,0.160845186,0.151787586,0.140067496,0.125595572,0.109078917,0.092131862,0.076261938,0.062749802,0.05240798,0.045372996,0.040971914,0.038374152,0.036789199,0.035930575,0.03541277,0.035179602,0.035175768,0.0354021,0.035766015,0.036277392,0.036901074,0.037671656,0.038545665,0.039475794,0.040576039,0.041732297,0.042967731,0.044302111,0.045681991,0.047112492,0.048607483,0.050116339,0.0516568,0.053168159,0.054709236,0.056212184,0.057609535,0.059019704,0.060359153,0.061700354,0.063086468,0.064487519,0.065939521,0.067516976,0.069105823,0.070684668,0.07228281,0.073827339,0.075367565,0.076876098,0.078335031,0.079690208,0.081072079,0.082397044,0.083643794,0.084859091,0.085965016,0.086963049,0.087984649,0.089081761,0.09010101,0.091014912,0.091778888,0.092565321,0.093390567,0.094290374,0.095168892,0.095997712,0.096753503,0.097374042,0.097819796,0.098097393,0.098203072,0.097980802,0.097518635,0.096680251,0.095275908,0.093450654,0.091165868,0.08861779,0.085957756,0.083197395,0.080525462,0.078071845,0.076168575,0.074334341,0.072462207,0.070315172,0.06800819,0.065866384,0.064344314,0.063858901,0.064008562,0.064360959,0.064218468,0.063419892,0.062258165,0.060773336,0.059418405,0.058390664,0.057942573,0.057450377,0.056831153,0.056109123,0.055324139,0.054399833,0.053571577,0.052635676,0.051873545,0.050860068,0.050072679,0.049063506,0.04822275,0.047399419,0.046647658,0.045872055,0.045100657,0.044009101,0.043188252,0.042082253,0.041627479,0.040700656,0.039973767,0.039278411,0.038781624,0.038173097,0.037963795,0.037389239,0.036779161,0.036626154
0.5707807233,0.574741277,0.576332134,0.5778865319,0.5794994153,0.5811772797,0.5825804218,0.5839979763,0.5850721499,0.586133069,0.5870141339,0.5878989119,0.5886357825,0.5891868857,0.5894845984,0.5897187043,0.5897311326,0.5895192778,0.5891287067,0.5886657427,0.587963232,0.5872117673,0.5863232808,0.58521376,0.5836574196,0.581300989,0.5776987245,0.5723508049,0.5652047476,0.5567705655,0.5484086542,0.541026536,0.5354329237,0.531497216,0.5286860052,0.5264189941,0.5243874285,0.5223916913,0.5207412253,0.519546129,0.518993035,0.5192034242,0.5200693735,0.5216073193,0.5235904748,0.525742522,0.5277504904,0.529521501,0.5311138652,0.5325547128,0.5336986626,0.5346660733,0.5354504026,0.5359382039,0.5361166779,0.5360651957,0.5356861065,0.5349108352,0.5336361727,0.5317913013,0.5291706927,0.5257410066,0.5213329267,0.5160060156,0.5095994105,0.5021459679,0.4936358863,0.4846166554,0.4753626867,0.4664043346,0.4580526481,0.4502651673,0.4424909176,0.4339171209,0.4233077851,0.4090468955,0.3892237823,0.3622115392,0.3290924971,0.2932446076,0.2581454258,0.2274287551,0.2026278762,0.183780785,0.1698952476,0.1597027104,0.1524356712,0.1474051033,0.1441154072,0.1421943992,0.1412428051,0.1410776483,0.1416349813,0.1432309294,0.1460288958,0.1500253121,0.154951177,0.1605661482,0.1666444134,0.1730339162,0.1796809003,0.1864049467,0.193195772,0.1999215366,0.2066021049,0.2131121801,0.2194702034,0.2255150494,0.2313457714,0.2369460584,0.2423464376,0.2475262962,0.2524848445,0.2572169924,0.2618075037,0.2662368959,0.2706382289,0.2749007012,0.279124844,0.2833451959,0.2874555174,0.2914588407,0.2953342836,0.2990125401,0.3024142468,0.3056128875,0.3085723291,0.3112526079,0.3136445034,0.3155159179,0.3165838448,0.3168407525,0.3165548908,0.3161259542,0.3159039442,0.3157859759,0.3152330877,0.3139893039,0.3120997908,0.3099451928,0.3075895491,0.3049481278,0.3021041631,0.2992438102,0.2963530295,0.2935167908,0.2909545859,0.2886803911,0.2862966143,0.2834634296,0.2805157496,0.2774910277,0.2748166419,0.2723649069,0.2703449156,0.2686555401,0.2674561765,0.2668273748,0.266867168,0.2673122627,0.2680961832,0.2696803325,0.2707789366,0.2717626505,0.2725238567,0.2731071198,0.2732626312,0.2727748525,0.2712643851,0.2682501579,0.263063079,0.2550317611,0.2434189237,0.2276584652,0.2070535653,0.1816516691,0.1535437614,0.125172162,0.09915208387,0.07780025694,0.06264691968,0.05295194115,0.0472652995,0.04398828005,0.04209761156,0.04109703313,0.04063886311,0.04063810667,0.04103596321,0.0417345204,0.04271206085,0.04393286386,0.04544106188,0.04713294311,0.04903685163,0.05116748089,0.05349613322,0.05601857634,0.05869994882,0.06148947944,0.06439867661,0.06727909839,0.07021713569,0.07311930598,0.07588433721,0.07853191375,0.08101549276,0.08336358221,0.08548867225,0.08743965085,0.08928946452,0.09109671017,0.09290478865,0.0947205237,0.09657623039,0.09842226564,0.1002698415,0.1020968748,0.1038863902,0.1057420757,0.1075830163,0.1094523976,0.1113492833,0.1132166838,0.1151240387,0.1169503432,0.1187862823,0.1205330434,0.1223096781,0.1242187613,0.1262876076,0.1285167452,0.1306809508,0.1328438082,0.1350376018,0.1371726254,0.1393577778,0.1415451802,0.1437229549,0.145803826,0.1477520598,0.1495425237,0.1510192014,0.1523025086,0.1531854117,0.1535408426,0.1532289326,0.1521894963,0.1502880343,0.147534974,0.1442848324,0.1404181918,0.1364188062,0.1322981273,0.1283006978,0.1246247518,0.1212443378,0.1185842838,0.1162221253,0.1139338795,0.1114494003,0.1091018707,0.1072501468,0.1060311195,0.1051610164,0.1039020678,0.1021560207,0.1001171278,0.09784140254,0.09566504285,0.09384127017,0.09246100415,0.09091922417,0.08933405049,0.08759779162,0.08570068565,0.08403468049,0.08196896902,0.0800111831,0.07807478027,0.07617971139,0.07413544863,0.0716678513,0.0695226472,0.06764190622,0.06530905135,0.06329700711,0.06117140553,0.05923583441,0.0573434385,0.05571218443,0.05408540714,0.05239482397,0.05076456158,0.04950710305,0.04837531994,0.04753870524,0.04663446311,0.04611260954,0.04540504446,0.04531465633
0.4595941458,0.4628337668,0.4636999243,0.4645497647,0.4655492067,0.4664515885,0.4672012202,0.4678891398,0.4684608608,0.4689947593,0.4696349914,0.4700641868,0.4705706951,0.4709398068,0.4711823984,0.4713143657,0.4714053126,0.4713167581,0.4712432278,0.4709918881,0.4706037288,0.4700967542,0.4694887821,0.4687974275,0.4678905235,0.4666383014,0.4646027127,0.4614971161,0.4572040077,0.4520486489,0.4468197915,0.4421761439,0.438609091,0.4360798698,0.4343196715,0.4329968679,0.4316998622,0.4303932143,0.4293073378,0.4285361509,0.4281121887,0.42803728,0.4283238916,0.4290158459,0.4302686232,0.4318571256,0.4334032243,0.4347410872,0.4359192179,0.4369415592,0.4377933281,0.4385569579,0.439101692,0.4393617534,0.4395100398,0.4394587191,0.4391985391,0.4387638179,0.4380219264,0.4369320901,0.4354292191,0.4333924461,0.4307182444,0.4273336901,0.4232937305,0.418507903,0.413020538,0.4070907143,0.4009519126,0.3949422692,0.3891946309,0.3839138606,0.3785716117,0.3724985455,0.3649132836,0.3544426346,0.3395124459,0.3187393015,0.2924624105,0.2633049013,0.2342239215,0.2082990013,0.1869851457,0.1704735885,0.1581784925,0.1490131777,0.1423350672,0.1375130808,0.1342512227,0.1322021339,0.1310848625,0.1306546043,0.1310232322,0.1324240128,0.1349895775,0.1386804014,0.1432515605,0.1484416552,0.154127674,0.1600489645,0.1662460546,0.1725709669,0.1789826609,0.1854137155,0.1916807268,0.19791373,0.2039560401,0.2097734138,0.2154131924,0.2208705873,0.2261432736,0.2311691537,0.2359715505,0.2404793674,0.244806261,0.2489418413,0.2529396871,0.2567678388,0.2605456859,0.2641720963,0.2677854403,0.2712421672,0.2745165957,0.2775825235,0.2804251202,0.2830461505,0.2854060866,0.2874704243,0.2892422487,0.2904562619,0.2912807635,0.2915857441,0.291503826,0.2913329931,0.2911005838,0.2906254461,0.2896853771,0.2881978656,0.2862132784,0.2839151102,0.281497494,0.278928346,0.2761427761,0.2733189338,0.270647633,0.2681339789,0.266155449,0.2651164718,0.2644921956,0.2631230388,0.2608223767,0.2580579533,0.255146292,0.2526846568,0.2510479808,0.2499469233,0.2491466982,0.2486319371,0.2486266575,0.2489672308,0.2496161294,0.2511498285,0.2520493837,0.2528834416,0.2535276401,0.2539791309,0.2540059022,0.2534980416,0.2520182145,0.2491621605,0.2443736938,0.2369240222,0.2261060851,0.2114517357,0.192120697,0.1681618521,0.141430158,0.1141871557,0.08915634955,0.06870775083,0.05423502541,0.04488013318,0.0393245926,0.03601794828,0.03407352777,0.03295056871,0.03245821328,0.03242492949,0.03280320642,0.03349026036,0.03446591036,0.0356628438,0.03711680343,0.0387196715,0.04059071234,0.04267377216,0.04495309754,0.04735433147,0.0499764289,0.0526940254,0.05546685231,0.05835361291,0.06128864622,0.06418447634,0.06705004971,0.06984757776,0.07247846694,0.07493797353,0.07722518223,0.07941734072,0.08152672425,0.08358870704,0.08581349741,0.08811797669,0.09050697561,0.09288028349,0.09523258251,0.09760291992,0.09987720153,0.102110514,0.1042979499,0.1064666868,0.1085931118,0.1106542865,0.1126502559,0.1145077557,0.1163060985,0.1179843064,0.119624781,0.1213204737,0.1231118997,0.124850047,0.126512358,0.1279692563,0.1295452828,0.131141816,0.1329542234,0.1347060863,0.136518573,0.1382792357,0.1399695812,0.1414350624,0.1426845446,0.1435837933,0.1440968179,0.14385322,0.1428778345,0.1409872279,0.1382091946,0.1350036857,0.1314113079,0.1276682636,0.124152099,0.1207324417,0.1176941945,0.1151427339,0.1129982448,0.1109690533,0.1088048123,0.1061034181,0.1029101388,0.09967305549,0.09672796887,0.09526385638,0.09508009774,0.09466633744,0.09307282367,0.09113792298,0.08893037855,0.086530682,0.08438716135,0.08298166248,0.08201588675,0.08080735773,0.07902563208,0.0771931738,0.07524138407,0.07329308214,0.07149979354,0.06952021871,0.06776178268,0.06580829672,0.06381829282,0.06174132531,0.05953458575,0.0575695993,0.05557975835,0.05352777567,0.05152631977,0.04985727235,0.04790147643,0.04613296303,0.04461201733,0.04291306811,0.04127643964,0.04035981667,0.03963789886,0.03823614498,0.03769349077,0.03706039024,0.0362559594
0.4347847092,0.4375666539,0.4386370417,0.4399095733,0.4410628768,0.4422066134,0.443341023,0.4443339528,0.445170419,0.4458398623,0.4465465277,0.4471142341,0.4475862776,0.4478933766,0.4480708961,0.4482007307,0.4481659582,0.4479157037,0.4475466323,0.4471245337,0.4465953861,0.4459207159,0.4451090898,0.4442134615,0.443077844,0.4412506764,0.4382969432,0.4337476001,0.4275289654,0.4202694535,0.4133079862,0.4076391617,0.4035906183,0.4007652846,0.3986715073,0.3968542139,0.3949951985,0.3932481834,0.3919415439,0.391347991,0.3915176792,0.3921284444,0.3932406245,0.3947822667,0.3966334981,0.3985064451,0.4002692622,0.4018169393,0.4031737587,0.4043880632,0.4053995064,0.4062008788,0.4067991317,0.4071691991,0.4072933853,0.4071348125,0.4065756671,0.4057066635,0.4044011609,0.4026269608,0.4002245127,0.3972622767,0.3935190832,0.3889683444,0.3835389067,0.3772222215,0.3702119203,0.3627810732,0.3551310851,0.3477705958,0.3407447051,0.3340191751,0.3272117118,0.319438456,0.3094491533,0.2958882329,0.2772772754,0.2525486841,0.2233180888,0.1931872547,0.165360263,0.1426828059,0.1256804273,0.1135815503,0.1051625972,0.09924682031,0.095121192,0.09230127106,0.09048896956,0.08949938943,0.08905938887,0.08906731551,0.08966892329,0.09107875002,0.09335296465,0.09648515015,0.1003404952,0.1047056797,0.1095381474,0.1147121569,0.1201593588,0.1258294184,0.1317041952,0.1376573246,0.1436286175,0.1496502281,0.1555964353,0.1614166207,0.1671364013,0.1727410297,0.1782331933,0.1835153829,0.1885719486,0.1934565426,0.1980678395,0.2025004819,0.206767756,0.2108308956,0.2147140598,0.2184910032,0.2220593296,0.2254410009,0.2286985193,0.2316789811,0.2343335562,0.2367356338,0.2389098786,0.2409413476,0.2428200488,0.2443451095,0.245371117,0.2458426207,0.2456862108,0.245134007,0.2442180243,0.2426505601,0.24037764,0.2375184418,0.2342639907,0.2308341386,0.2277581114,0.224987846,0.2226697092,0.2206865687,0.2188750266,0.2170026566,0.2151506701,0.2133398467,0.2112523413,0.2085119024,0.2053852092,0.2024126531,0.2000199092,0.1981125522,0.1965545577,0.1953285587,0.1942738681,0.1936026565,0.1933191238,0.1933460794,0.1937286331,0.195617334,0.1962117069,0.1967497743,0.197102834,0.1970731902,0.1965697597,0.1953653229,0.1931824057,0.1895250669,0.1839935614,0.1758638769,0.1646875827,0.1503039936,0.1324613882,0.1120013655,0.09144906168,0.07298439616,0.0580955317,0.04752827411,0.04090492108,0.03706676936,0.03487023252,0.03358811771,0.0328240404,0.0324132129,0.03222916511,0.03224026925,0.03243588298,0.03272808579,0.03318654401,0.03377355648,0.03443199876,0.03517337741,0.03601835901,0.03691837568,0.03795866181,0.03910595295,0.04032014144,0.04167119379,0.04305671179,0.04452201254,0.04605301419,0.04763044364,0.04921708834,0.05083725668,0.05246295305,0.05407302096,0.05560100087,0.05723186861,0.05883611166,0.0604625522,0.06218348485,0.06389712266,0.06570586242,0.06751715078,0.06937570536,0.07124144275,0.07310444605,0.07495751648,0.07683257011,0.07866776983,0.08045098015,0.08218879431,0.08386898132,0.08552502063,0.08706596342,0.08852184082,0.08991847419,0.09132221391,0.09271775302,0.09407139869,0.09541103175,0.09666417516,0.09792407652,0.09909190032,0.1002481678,0.1013203313,0.1023347734,0.1032926883,0.1040193731,0.1046656284,0.1050139918,0.1051776769,0.1051470468,0.1048319474,0.1040526594,0.1027477097,0.1008726485,0.09845863204,0.09557046266,0.09235537166,0.08923111894,0.08627479091,0.08366805489,0.08163263882,0.07971291381,0.07776494448,0.07548444773,0.0729149046,0.0706717165,0.06915247545,0.06832578591,0.06814284388,0.06778848715,0.06709044175,0.06596127572,0.06444889467,0.06280061207,0.06132568893,0.06004738326,0.05919659731,0.05832697867,0.05748387791,0.05640763945,0.0553868452,0.05436987476,0.05334191528,0.05221228684,0.05103657197,0.05001882573,0.04895269053,0.04775406915,0.04706590746,0.04608917924,0.04528900788,0.04398440358,0.04342480508,0.04239845387,0.0414565125,0.04047558737,0.03969236747,0.03900144702,0.03829107203,0.0375273216,0.03707248686,0.03661842869,0.03613117625,0.03593683538,0.03586361478,0.03592186621
0.473153863,0.47192383,0.473214468,0.474411068,0.475757554,0.477157933,0.478437423,0.479489106,0.48047301,0.481451037,0.482183088,0.482886141,0.483447318,0.483933845,0.48424987,0.484417862,0.484319679,0.484134163,0.483723233,0.483226195,0.482427434,0.48152624,0.480411643,0.47915806,0.477651343,0.475434489,0.471845939,0.466224262,0.45841745,0.449226292,0.440169998,0.4325852,0.426876213,0.422690441,0.419415849,0.416407473,0.413420129,0.410437023,0.408166044,0.407030816,0.406999015,0.407903884,0.409532041,0.411818576,0.414701007,0.417745156,0.420556647,0.422919311,0.424917935,0.426642522,0.42810709,0.429247042,0.43013654,0.430562674,0.430715113,0.430572574,0.430106916,0.429153526,0.427761594,0.425921316,0.42334708,0.419979171,0.415810306,0.410591079,0.404485824,0.397388376,0.389498889,0.381083575,0.372454674,0.364069487,0.355990061,0.34822212,0.340408685,0.331872922,0.321352811,0.307357654,0.288350167,0.263601174,0.234457779,0.204437289,0.176731214,0.153910895,0.136440898,0.123727208,0.11468698,0.108225162,0.10362936,0.100382002,0.098223983,0.096892292,0.096215514,0.096018666,0.096422808,0.097592157,0.099694356,0.102645317,0.106285793,0.110436005,0.115021044,0.119952383,0.125147164,0.130562848,0.136139153,0.141813593,0.147531081,0.15326586,0.159002866,0.16453318,0.170047784,0.175400574,0.180667971,0.185784036,0.190641317,0.195311387,0.199747347,0.204055278,0.208196802,0.21214744,0.216059725,0.219804899,0.223358673,0.226743381,0.229918518,0.23284649,0.235446119,0.23765652,0.239485839,0.241399315,0.243401056,0.24518169,0.2463627,0.246911811,0.246859796,0.246331083,0.24504369,0.242557531,0.23873457,0.233715794,0.228270587,0.222917579,0.218189328,0.214351924,0.21140732,0.209377514,0.207980337,0.206607773,0.20552936,0.204802083,0.203905329,0.202013397,0.199337783,0.196897247,0.195030339,0.193827291,0.193081079,0.192654423,0.192402842,0.192431228,0.192761629,0.193255271,0.194010302,0.191970411,0.193257875,0.194243773,0.194818071,0.195033793,0.194838946,0.19404943,0.192284949,0.189323432,0.184489735,0.177273431,0.167148295,0.153846055,0.137222713,0.118063282,0.098151602,0.079344223,0.063393833,0.051261311,0.043113716,0.03805859,0.035147866,0.033406741,0.03235716,0.03177892,0.031498434,0.031506901,0.03171292,0.032122126,0.032689108,0.03340648,0.034203707,0.035176453,0.036238648,0.03742698,0.038722881,0.04011436,0.041622147,0.043188631,0.044832273,0.0465265,0.048267589,0.050051248,0.05180723,0.053555988,0.055260628,0.056952861,0.058538585,0.060095159,0.061652991,0.063216317,0.064891775,0.066646299,0.068489024,0.07032132,0.072136766,0.073991375,0.0758294,0.077547476,0.079294721,0.080979232,0.082630705,0.084188755,0.085734483,0.087214345,0.088681754,0.089952522,0.09116821,0.092296638,0.093485661,0.094588497,0.095593033,0.09644115,0.097375112,0.098376408,0.099465165,0.100521261,0.101556578,0.102521923,0.103354651,0.103903277,0.104270553,0.10442086,0.104275381,0.103848719,0.103014537,0.101483074,0.09937729,0.096857844,0.093911684,0.090623839,0.087249053,0.084044156,0.081260304,0.079091958,0.077212594,0.075260535,0.07296946,0.070495866,0.068201698,0.066505357,0.065622137,0.065624411,0.065837097,0.065576605,0.064866033,0.063567818,0.062173683,0.06065217,0.059532215,0.058775808,0.058248207,0.057507652,0.056753625,0.05582021,0.054933601,0.053863587,0.052909871,0.051690123,0.050687511,0.049511726,0.048594341,0.047607942,0.046571764,0.045689267,0.044638407,0.043741537,0.042601298,0.041808027,0.040670021,0.039888236,0.038975887,0.038347671,0.037544433,0.036783017,0.036430898,0.035890644,0.035317655,0.035111347,0.035204731
0.5725176026,0.5743707107,0.5761063042,0.5777517077,0.5796783021,0.5813897849,0.5831117747,0.5845911905,0.5859905348,0.5872968587,0.5885856964,0.589480433,0.5903211693,0.5910010601,0.5913929849,0.5915324972,0.5915660646,0.5913843246,0.5909952495,0.5904145168,0.589710497,0.5887520609,0.5876466036,0.5862518418,0.5843560308,0.581551231,0.5773411184,0.5711128876,0.562960242,0.5534457103,0.5436438489,0.5349982503,0.5280657753,0.5228689028,0.5190418822,0.5159214772,0.5129651772,0.5102467882,0.5079807006,0.5063878471,0.5055739221,0.5057477746,0.5070248763,0.5091559346,0.511815943,0.5146153469,0.5172450867,0.5195101504,0.5214984442,0.5232954334,0.5247743084,0.5259501983,0.5269360966,0.5275685976,0.5278609943,0.5279019256,0.5275742031,0.5268278804,0.5254996592,0.5234596629,0.5206607002,0.5169383526,0.5121879667,0.5063573927,0.4993401437,0.4912236813,0.4819549804,0.4720169415,0.4618490706,0.4519037253,0.4426251538,0.4339513007,0.4253745106,0.4160689349,0.4047295291,0.3898086304,0.3693498092,0.3418696625,0.3084678294,0.2726801134,0.2379072406,0.2077630234,0.1833991242,0.1649543295,0.1513641524,0.1414202493,0.1342469885,0.1291823977,0.1257497756,0.1236276232,0.1224628362,0.1220212986,0.1222816026,0.1234431897,0.1256981164,0.1290011765,0.1331953126,0.1380635312,0.1434106667,0.1490450697,0.1549685,0.1610142765,0.1671470698,0.1733178589,0.1794218886,0.1854970527,0.1914316872,0.1971570604,0.2027214269,0.208040766,0.2131882601,0.2181162325,0.2228322458,0.2273263274,0.2316981982,0.2359697763,0.2401612955,0.2442554216,0.2482497318,0.2522138964,0.2561205796,0.2598325344,0.2634225963,0.266854507,0.2700086387,0.2729350452,0.2755238448,0.277893155,0.2799795865,0.2815760747,0.2824615564,0.2824085418,0.2816611916,0.280725546,0.2798576212,0.2789784523,0.2776964245,0.2756484172,0.2728609374,0.269712349,0.2664817466,0.2630556796,0.2593953571,0.2560200315,0.2535141416,0.2516121556,0.2501069018,0.2486601463,0.2469362415,0.24466057,0.242205539,0.2398640965,0.2378741879,0.2363297191,0.23507309,0.2340689351,0.2332951345,0.2333252926,0.2338056448,0.234711983,0.2358306126,0.2365793551,0.2379447859,0.2391861873,0.2401560338,0.2408235699,0.2411347759,0.2408333259,0.2395363311,0.2368432713,0.2321995498,0.2249309752,0.2143255454,0.2000278353,0.1813288883,0.158496928,0.1335502229,0.1086028013,0.08610885135,0.06802411981,0.05555300099,0.04764443022,0.04310645835,0.04052356306,0.03905985782,0.03825781025,0.03790701206,0.03786561918,0.03806512605,0.03851802391,0.03916407313,0.03998663331,0.04098287936,0.04215766455,0.04353034739,0.04503321564,0.04670167735,0.04852321218,0.05045755616,0.0524779947,0.05456501445,0.05669241366,0.05893016336,0.06117658412,0.06336882738,0.0654787255,0.06741787848,0.0692653683,0.07093543724,0.07253067529,0.07403878663,0.07551987512,0.07707727203,0.07857728823,0.08015905399,0.08172461637,0.08331576123,0.08487693737,0.08635862906,0.08789599725,0.0894124201,0.09085797967,0.0923195178,0.0937701924,0.09509315639,0.09641542034,0.09769511129,0.09892577623,0.1001910712,0.1016179879,0.1031338828,0.1048251308,0.1066750269,0.1084983867,0.1104354481,0.1123149416,0.1142427894,0.1162266815,0.1181838204,0.1201948691,0.1218980213,0.123463135,0.1248963764,0.1260414099,0.1269207916,0.1274272026,0.1271892251,0.1261262074,0.1242735852,0.1216290497,0.1183193166,0.1145638266,0.1107664591,0.106966975,0.1033165484,0.1000975557,0.0972130633,0.09468306005,0.09232152866,0.08987041088,0.08751146138,0.08556353094,0.08460740545,0.08426074228,0.08394515545,0.08291969848,0.08152861234,0.07995381972,0.07814492434,0.07659727625,0.07524718916,0.07431656874,0.07335224617,0.07232815149,0.07120612271,0.06983353222,0.06870786433,0.06729349967,0.06567536895,0.06437944121,0.06301532356,0.06134397074,0.05998090967,0.0586104175,0.05709275995,0.05551930275,0.05411334121,0.05258210097,0.05145850521,0.05015983228,0.04879771606,0.04768580214,0.04613031103,0.04520399946,0.04450450908,0.04367167207,0.04312861572,0.04268484999,0.04191642294,0.0419667113,0.04168955565
0.5593273238,0.5638644018,0.5656160174,0.5674325044,0.5693996785,0.5712524992,0.5731019062,0.5746755761,0.5759627512,0.5772436747,0.5783336367,0.5794588879,0.5802735097,0.5810159188,0.5814750714,0.5817543276,0.5818132407,0.5816138446,0.5812314281,0.5806630038,0.5798636091,0.5788377844,0.5777312085,0.576247105,0.5742346934,0.5711914475,0.5667371597,0.560156173,0.5514003134,0.541169623,0.5308441895,0.5215850477,0.5141502858,0.5086755847,0.5045427723,0.5012257443,0.4982366273,0.4953174246,0.4929404842,0.4912678772,0.4902762396,0.4905249593,0.4919869517,0.4944015379,0.4972719137,0.5002926183,0.5030253372,0.5054561676,0.5075647919,0.5094644585,0.5109607346,0.512191877,0.5132634276,0.5138938163,0.5142181829,0.5142083702,0.5138571181,0.5129639747,0.5115460218,0.5093730549,0.50639147,0.502459363,0.4973899284,0.4912226158,0.4838508936,0.4752616528,0.4654553504,0.4550579114,0.4443756034,0.4340723887,0.424420604,0.4154084334,0.406520323,0.3967635346,0.385039294,0.369710969,0.348925057,0.3212000907,0.2879285137,0.2527023387,0.218950348,0.1899393293,0.1668130738,0.14949712,0.1368459899,0.1276666049,0.1211130943,0.1165240651,0.1134530016,0.1115537739,0.1105453387,0.1101714473,0.1104348162,0.111512781,0.1135720602,0.1166352038,0.1204627823,0.124948025,0.1298428282,0.1350919632,0.140568817,0.1461765561,0.1518881433,0.1576053735,0.1633018009,0.1689376095,0.1744758201,0.1797757119,0.1849511109,0.1898970975,0.1947068945,0.1993438774,0.2038150456,0.208071177,0.2121888325,0.2162087928,0.2201559199,0.2240298069,0.2278412007,0.2316050817,0.2353302814,0.2388579521,0.2423311783,0.2456002037,0.2486310623,0.2514050258,0.2539828329,0.2562864287,0.2583151961,0.2598373081,0.2605651962,0.2604965208,0.2598038842,0.2588955442,0.2580180892,0.2570830709,0.255649708,0.2534583684,0.2504470585,0.2471279998,0.2438272508,0.2403409124,0.2364281023,0.2329296468,0.2306394034,0.2291780709,0.2280624591,0.2269029084,0.2251714212,0.222878289,0.2203957223,0.2180343992,0.2160744816,0.2145675114,0.2133592515,0.2122084013,0.2115267566,0.2117257242,0.2125794993,0.2136952137,0.2149148787,0.2163643191,0.2175543266,0.218618393,0.2195352174,0.2201860976,0.2204366506,0.2200440887,0.2187723429,0.2161502053,0.2116545199,0.2046890076,0.1946623134,0.1811338131,0.1636607473,0.1425205206,0.1196079752,0.09700158795,0.07686530816,0.06089363277,0.04991907324,0.04311237213,0.03924086579,0.03709011815,0.03592701578,0.03527035927,0.03496980481,0.034944466,0.03511986618,0.03548718711,0.03595723767,0.03661638549,0.03742023893,0.03834808925,0.03944951079,0.04069525968,0.04209211982,0.043589834,0.0451771837,0.04687977149,0.04866605588,0.05050801233,0.05239538759,0.05432289156,0.0561487863,0.05798380069,0.05966791574,0.06125872522,0.0627343476,0.06409099791,0.06544198615,0.06673387596,0.06803192723,0.06928579754,0.07066812637,0.07198731242,0.07330557962,0.07462588572,0.07593921821,0.07721375261,0.07848544739,0.07976412949,0.08109532895,0.08232230679,0.08356491482,0.08473926125,0.08585905829,0.08697701553,0.08806682003,0.08931303982,0.09069246981,0.09221273202,0.09387841896,0.09560315891,0.0973643843,0.09903906857,0.1007764474,0.1025078344,0.1042067507,0.106016069,0.1075878866,0.1090319298,0.1101935327,0.1112139747,0.1120063807,0.1123708611,0.1121288132,0.111118741,0.1093923154,0.1068319411,0.1037237846,0.1002121879,0.0965245031,0.09286602086,0.08950239678,0.08666014522,0.08415534212,0.08200470363,0.0798063664,0.07759284658,0.07541989998,0.07364009472,0.07260334146,0.07221249621,0.07192093506,0.07098822699,0.06975087983,0.06848519738,0.06718604494,0.06582055141,0.06467420086,0.06387501025,0.06303563966,0.06218301367,0.06135166716,0.06048882394,0.05939602488,0.058246563,0.05697523778,0.05586787566,0.05448439607,0.05319528593,0.05200352157,0.05097388411,0.04963217564,0.04882374215,0.04743575118,0.04605759147,0.04522271427,0.0441012508,0.04293422636,0.04196565219,0.04097103612,0.04025674437,0.03941447017,0.03913150184,0.03850131137,0.03783402976,0.03753113695,0.03737106423,0.03709390664
0.5608043901,0.5646347598,0.5661869265,0.5679401767,0.5697563953,0.5714334258,0.5731052501,0.5746457516,0.5760453621,0.5773730593,0.5785291362,0.5795573117,0.5804469375,0.5811526562,0.581714076,0.5820228631,0.5820787226,0.5819595267,0.5815093758,0.5809163837,0.5801101851,0.5792164303,0.5780837806,0.5766766194,0.5746953383,0.5717867592,0.5674316104,0.5610394032,0.5526950862,0.5429598508,0.5328441296,0.523671927,0.5160776,0.5102959426,0.5059322793,0.5022447311,0.4990137007,0.4958965798,0.4933727615,0.4914301637,0.4903584909,0.4904850717,0.4919119147,0.49418495,0.4970690383,0.5000210071,0.5028242784,0.5052275406,0.5073642973,0.5092299603,0.5107526111,0.512052685,0.5130982201,0.5138860376,0.5143071173,0.5143785227,0.5140947669,0.5133366424,0.5119973722,0.5100666746,0.5072491464,0.5035025704,0.4987705293,0.4928130941,0.4856807516,0.4772466239,0.467759154,0.4576096687,0.4470991768,0.4370038714,0.4274966206,0.4186317205,0.4098573276,0.4004489252,0.389109723,0.3743332572,0.3541344993,0.3269676974,0.2940903537,0.2588795742,0.2246978823,0.1950201511,0.1709614128,0.1525992895,0.1389672833,0.1289073103,0.1215247249,0.1162544268,0.1125675481,0.1102072558,0.1088088246,0.1081494551,0.1081710932,0.1090387518,0.1109042788,0.1137701697,0.1174408775,0.1217721665,0.1265827427,0.1317158502,0.1371236057,0.142656219,0.1483238211,0.1540212355,0.1596765637,0.165259429,0.1707414336,0.1760369354,0.1812149552,0.1861484514,0.1909655,0.1955804733,0.1999827788,0.2042490865,0.2083934494,0.2124342549,0.2164046773,0.2202729669,0.2240807265,0.2278377345,0.2314806219,0.2350641052,0.2385072595,0.2418065756,0.2448668457,0.2476926676,0.2502345209,0.252557126,0.2545805197,0.2561302364,0.2568954159,0.2568697369,0.2561677825,0.2553198837,0.2544182702,0.2534984407,0.2521363696,0.2499656315,0.2470563915,0.2437295385,0.2404930333,0.2370431815,0.2331351692,0.2296090096,0.2273927898,0.2260260075,0.2249943459,0.2239297061,0.2223790525,0.2202261858,0.2178943646,0.2156339734,0.2138501725,0.2124843909,0.2113987468,0.2104768637,0.2099087062,0.2101798123,0.2111604652,0.2123224125,0.2137166262,0.2155067451,0.216863446,0.2180621645,0.2190958771,0.2198203889,0.2201642255,0.2199265668,0.2188024896,0.2163280591,0.212051578,0.2053097468,0.1954440309,0.1820708965,0.164651419,0.1433980096,0.1201792112,0.09698545997,0.07600605663,0.05911492577,0.04733090605,0.03982601963,0.03548342821,0.03297027286,0.03154360776,0.03072906828,0.03033153903,0.03025449164,0.03042602234,0.0307525674,0.03127326536,0.03194445932,0.03280470616,0.03378520739,0.03489282227,0.03616310128,0.03758035135,0.03911711447,0.04076612491,0.04246467279,0.04428337154,0.04612634549,0.0480562816,0.05000384857,0.05192911955,0.05377216236,0.05546995962,0.05705714232,0.05855308281,0.05995980297,0.06130272609,0.06260670035,0.0639691976,0.06531057976,0.06670413874,0.06806092349,0.06942449386,0.070767512,0.07210743774,0.07345972179,0.07473466725,0.07607744858,0.07741929215,0.07870460477,0.07995007199,0.0811070055,0.08226079065,0.08341103421,0.08457413036,0.08586055175,0.08726767669,0.08884460367,0.09060637594,0.09234978776,0.09418652397,0.09596720756,0.09779366419,0.09958370123,0.1014536708,0.1032233604,0.1047990853,0.106246541,0.1075831307,0.1086924725,0.1095868705,0.1099824207,0.1098100008,0.1087728368,0.1069165057,0.1043800847,0.1012661706,0.09763007858,0.09388084205,0.09018044455,0.08670173794,0.08374772651,0.08120178111,0.07889800546,0.07673792133,0.07435527889,0.07211544377,0.0703414703,0.06925300301,0.06895395656,0.06861689093,0.06763781505,0.06636195513,0.06495308855,0.06366111003,0.06230461112,0.06119899435,0.06027135637,0.05940726774,0.0586403621,0.05776118201,0.05680312817,0.05569508019,0.05463703825,0.05326688621,0.05194319205,0.05072135967,0.04938060578,0.04822457331,0.04694149408,0.0457457939,0.04454823602,0.04318476304,0.04202219495,0.04049380972,0.03960569799,0.03824114503,0.0372205215,0.03639143912,0.03516672565,0.03474866651,0.03406212243,0.03361861997,0.03352257196,0.03236214259,0.0324343359,0.03240396726
0.4915204366,0.4949589421,0.4953547993,0.4957384881,0.4962326352,0.4967179844,0.4970874068,0.4973219246,0.4976653617,0.4977354158,0.4979757622,0.4981240741,0.4982350522,0.4982457605,0.4981319608,0.4979420605,0.4977335866,0.4973447659,0.4968921293,0.4963882991,0.4957792563,0.495189456,0.4944499934,0.4936046991,0.4925639897,0.4913011486,0.4896137989,0.4872439169,0.4839273269,0.4797635866,0.4755949546,0.4717854744,0.4689055946,0.4669551527,0.4655115129,0.4644239716,0.4633836324,0.4623551426,0.4613902314,0.4606451359,0.4600820641,0.4598032735,0.4597540246,0.4600852507,0.4606515486,0.4614661883,0.462131822,0.4627501293,0.4632205393,0.4635882518,0.4638922107,0.4640771028,0.4641458822,0.4640797003,0.4639040892,0.4635375949,0.4630725221,0.4624485068,0.4615526535,0.4604444695,0.4588706635,0.4569290547,0.4545243789,0.4517041171,0.4482917837,0.4442975867,0.4398676707,0.435076687,0.4301458284,0.4253027195,0.4206911259,0.4164224999,0.4121314396,0.4072089929,0.400862436,0.3921835419,0.3796921988,0.3619195998,0.3389396403,0.3125472384,0.2851972896,0.2597543678,0.2379991012,0.220673952,0.2074906103,0.1975402837,0.1902240004,0.184917716,0.1812962865,0.1789813992,0.1777158448,0.1772487452,0.1776909478,0.1792618509,0.1821242945,0.186223941,0.1912583087,0.1969026609,0.2029479235,0.209216329,0.2156199303,0.2220579982,0.228400729,0.234620766,0.2406442597,0.2464884745,0.2520839202,0.2573729311,0.2624210691,0.2671858296,0.2717422661,0.2760487648,0.280044733,0.2838637017,0.2874363607,0.2907894354,0.2940383753,0.2971314582,0.3001003575,0.3029508988,0.3057256282,0.3083109072,0.310755478,0.3130510489,0.3151537967,0.3170081496,0.3186304358,0.3198236919,0.3204860608,0.3205700333,0.3201845911,0.3199326925,0.3203953965,0.3216566659,0.3230027106,0.3237825227,0.3236262465,0.3227293989,0.3213029941,0.3196330055,0.3178363455,0.3160019581,0.3139928447,0.3119246563,0.3098039194,0.3076972558,0.3057077671,0.3044771845,0.3033549654,0.3016642801,0.2993776747,0.2966205595,0.2938488477,0.291350285,0.2894930521,0.2880419089,0.2869508575,0.2862167424,0.2860181215,0.286141752,0.286503078,0.2876402412,0.2882033058,0.2887822157,0.2892796832,0.2896065713,0.2896231595,0.2891551573,0.2878368141,0.2852770321,0.2810057733,0.2743960438,0.2648018931,0.2516211683,0.2337599551,0.21053802,0.183294203,0.1537490362,0.1245701162,0.09882088967,0.07894931216,0.06520896284,0.05652717297,0.05135269986,0.04822642247,0.04651949729,0.04582601387,0.04588685543,0.0466283544,0.04792601386,0.04963117682,0.0517785202,0.05421460978,0.0569767627,0.06000889853,0.06332627546,0.06680199945,0.07052743054,0.07441579196,0.07841930035,0.08250332483,0.08658396125,0.09063806322,0.09456353463,0.09831563197,0.1019220624,0.1052748849,0.108396217,0.1112281876,0.1138681954,0.1163446721,0.1186984433,0.1211044939,0.1234764061,0.1258702352,0.1282246461,0.1304979131,0.1327114819,0.1347725641,0.136801896,0.1387500044,0.1406134182,0.1422802165,0.1437752357,0.145098913,0.1463394564,0.1476654132,0.1492808356,0.1510038146,0.1529395922,0.1550022497,0.1569556628,0.1586724455,0.1602755273,0.1618258956,0.1635050853,0.1653049846,0.1671204703,0.1690101868,0.1708260066,0.1725338832,0.1742515338,0.1758676749,0.1773118724,0.1784798198,0.1792487233,0.179200157,0.1784065326,0.1766733498,0.1741762175,0.1711097302,0.1680336493,0.1652515784,0.1624857451,0.1598964967,0.1573581554,0.1550184098,0.1528643931,0.150603847,0.1479687174,0.1446970652,0.1408570964,0.1371599549,0.1347087548,0.1339325245,0.133165517,0.1313291898,0.129162963,0.1269804151,0.1246223603,0.1222789827,0.1206246796,0.1193771251,0.1176370021,0.1154073204,0.1129186945,0.1103070253,0.1075201903,0.104652064,0.1018849704,0.09898156467,0.09611943381,0.09334871171,0.09040154395,0.08738159827,0.0842703604,0.08120638389,0.07823243012,0.07519201543,0.07279010456,0.07000386305,0.06746253143,0.06494429157,0.06262088458,0.06021521269,0.05831016992,0.05690913981,0.05567050679,0.05409786238,0.05288195709,0.05241255556
0.4699535815,0.4726072337,0.4737375185,0.4750178815,0.4761724653,0.4774329541,0.4785493897,0.4795426594,0.4805396417,0.4814833611,0.4823011694,0.4829295685,0.4833414474,0.4835323018,0.4837983184,0.4837612035,0.483743478,0.4834619666,0.4831755103,0.4827691982,0.4821220136,0.4814479389,0.4807447837,0.4797519166,0.4784955861,0.4766813305,0.4738977586,0.4694185383,0.463208528,0.4558450704,0.4483861374,0.4422739738,0.4376450244,0.4343220916,0.4319963095,0.4300652017,0.4281517541,0.426216878,0.4246823082,0.4238655444,0.4237374312,0.424241778,0.4252178205,0.4265651834,0.4284139914,0.430387747,0.432198105,0.4337498895,0.4352285604,0.4364013897,0.4374156787,0.4382743579,0.4389817074,0.4393909418,0.4395547725,0.4394361513,0.4390514625,0.4382084318,0.4369870672,0.4352229994,0.432903506,0.4298984204,0.4261632627,0.4215574339,0.416121899,0.4097488894,0.402644141,0.3950158742,0.3872204101,0.3796139403,0.3724214273,0.3656134242,0.3588070154,0.3512055834,0.3415843544,0.3286853951,0.3108143405,0.2868454942,0.2579622965,0.2274281874,0.1983688734,0.1737113011,0.1544347442,0.1402043067,0.1300330263,0.1227744723,0.1176246263,0.1140545656,0.1116565277,0.1102107012,0.1094157027,0.1091851882,0.10957536,0.1107750099,0.1129154628,0.1159648446,0.1197810889,0.1241085853,0.1288704848,0.1339244888,0.1392565668,0.144748355,0.150360376,0.1560343642,0.1616952233,0.1672815546,0.1728443686,0.1782297756,0.1834637476,0.1885870943,0.1935202652,0.1983180023,0.2028748784,0.2071980108,0.2113258161,0.2153690774,0.2192413018,0.2229638511,0.2265941935,0.2301986701,0.2336234689,0.2369085793,0.2399959103,0.2429176266,0.2455212592,0.2478759564,0.2499767192,0.2518799576,0.2535588733,0.2548322548,0.255534787,0.2557904544,0.2556919594,0.2554537471,0.2548371238,0.2534917733,0.251194339,0.2480338123,0.2444335961,0.24100052,0.2379499396,0.2353086668,0.2329728974,0.2309371444,0.2290675179,0.2274329176,0.2259708399,0.2248037824,0.2234569869,0.2214682844,0.2190005184,0.2164335405,0.2139945731,0.2118856639,0.2104033864,0.2093528268,0.2086668677,0.2083432666,0.2082879594,0.208557086,0.2091469623,0.2102025466,0.2109290186,0.2115574708,0.2120913917,0.2123381571,0.2121900489,0.2114490291,0.209813576,0.2068381722,0.2019721813,0.1947071491,0.184403627,0.1709047752,0.1537918179,0.1334585226,0.112002047,0.09157798846,0.07398624418,0.06044911381,0.05125348949,0.04554823997,0.04217012375,0.04017491788,0.03900527116,0.0383531574,0.03806287874,0.03804139839,0.03826879098,0.03871408685,0.03931813181,0.04007308265,0.04099745093,0.04202340334,0.04314183888,0.04436999567,0.04574482848,0.04721498878,0.048782316,0.05044636275,0.05218221846,0.05397675431,0.05581963155,0.0576609688,0.05944629994,0.06124373987,0.06296439788,0.06457981471,0.06612572234,0.06762972568,0.06910838957,0.07054573598,0.07206511249,0.07358046889,0.07520886798,0.07679977275,0.07841528138,0.08007661045,0.08167325866,0.08324730219,0.08478342978,0.08632700401,0.08779655136,0.08920708114,0.09059201869,0.09190956473,0.09321910793,0.09441547813,0.09556401198,0.09683165748,0.09810618022,0.099332794,0.1004793402,0.1014441916,0.102559612,0.1036837134,0.1049709045,0.1061979122,0.1074088991,0.1086346016,0.1097574481,0.1107073345,0.1115356893,0.1120820028,0.112401294,0.1122209677,0.1114680051,0.1100949885,0.1080760856,0.1055251706,0.1026815506,0.09949696012,0.09634904427,0.0934610571,0.09076752222,0.08855869483,0.08667044571,0.0850477454,0.0831411646,0.08106723353,0.07890972925,0.07716701002,0.07601787387,0.07544586911,0.0753082587,0.07483999875,0.07380933817,0.07260895541,0.07120937104,0.06969583836,0.06871330063,0.06790173352,0.06718614039,0.06615072102,0.06524651779,0.06417994057,0.06303518956,0.06185760469,0.06056834811,0.05936026196,0.05798660981,0.05683948583,0.05540826454,0.05424599813,0.0531689525,0.05204315005,0.05098808107,0.04980555652,0.04864331295,0.04731549195,0.04636264655,0.04514947081,0.04436369129,0.04333156041,0.04290435876,0.04226158102,0.04163702667,0.04114085211,0.04066066712,0.04004528782,0.04039584088
0.4982094037,0.5013531512,0.5022379413,0.5032620734,0.5041782143,0.5051475487,0.5059695945,0.5066605287,0.5072504785,0.5078836334,0.5083791851,0.5088955723,0.5095193972,0.5099286622,0.5102867084,0.5105192919,0.5107417108,0.5108542866,0.5105933406,0.5104466551,0.5101091859,0.5095860362,0.5090558961,0.5083948309,0.5074720315,0.5060757222,0.5040168817,0.500919078,0.4966688435,0.4917756602,0.4869783565,0.4827569935,0.4795881328,0.4773166922,0.4757002382,0.4744798809,0.4732639662,0.4721184163,0.4710937554,0.4703089302,0.4699390742,0.469892247,0.4703514304,0.4711793479,0.472279702,0.473524782,0.474724101,0.4757359432,0.4766300263,0.4774911619,0.4781996615,0.4787647278,0.4791026793,0.4793205406,0.4793051489,0.4792485748,0.4789682929,0.4785014463,0.4777869807,0.4767601144,0.4753608985,0.4734254989,0.4709845827,0.4678062518,0.4639853134,0.4594601924,0.4542270201,0.4486251955,0.4428408858,0.4371418853,0.4317807153,0.4266687562,0.4213656319,0.4154564601,0.4078090984,0.3972227306,0.3820119959,0.3609517963,0.334306952,0.3046922978,0.2750993006,0.2485524011,0.2266038103,0.2095525081,0.1967531116,0.1871464125,0.1801039632,0.1750417856,0.1715922972,0.1694283751,0.1682748833,0.1679056663,0.1683681563,0.1698628998,0.1726120085,0.1765687283,0.1814215916,0.1869190362,0.1929644647,0.1992393303,0.2058026593,0.2124235831,0.2191117991,0.2258593152,0.2325047913,0.239008857,0.2453661669,0.2514608776,0.2574636203,0.2631791011,0.2687209338,0.2740160259,0.2789130327,0.2835774823,0.2879473844,0.2922448122,0.2963112819,0.3001024464,0.3038204109,0.3073611425,0.3107761111,0.3139865617,0.3170418317,0.3198979281,0.3224273269,0.3247861915,0.3269156552,0.3287413511,0.3303836064,0.3315886877,0.3323253958,0.3323995092,0.3319648507,0.3314758138,0.3311963741,0.3311353958,0.3308071767,0.3298955434,0.3284397803,0.3265632332,0.3244254534,0.3218818888,0.3191888794,0.3166607378,0.3143729424,0.3122368787,0.3104538846,0.3093463379,0.3082488454,0.3064182256,0.3038033307,0.3008523631,0.2981234843,0.2957764187,0.2940340014,0.2927735002,0.2918777058,0.2913449259,0.291290137,0.2915665661,0.2922360562,0.2981618055,0.2990831775,0.2997840246,0.3003883262,0.3006838121,0.3005500582,0.2996373863,0.2976499462,0.2943109391,0.288968793,0.2809567678,0.2694054251,0.2538033768,0.232941622,0.207071006,0.1782184996,0.148736621,0.121420087,0.09896331218,0.08274817041,0.07197383663,0.06538861371,0.06144895773,0.05910373907,0.05784888969,0.05724584011,0.05716338918,0.05759618995,0.05841082602,0.05973232736,0.06140584847,0.06327361627,0.06535353888,0.06763244303,0.07008479063,0.07279360285,0.07575664378,0.07900014951,0.08228074041,0.08562602916,0.08890213102,0.09233770193,0.09579272966,0.09922959868,0.1026638402,0.1059220475,0.1089792769,0.1117949031,0.1144933859,0.11722637,0.1200407385,0.1230646281,0.1261344557,0.1292513967,0.1322863119,0.1351359438,0.1379868133,0.1407124212,0.1434632587,0.1461554735,0.1488497251,0.1514001713,0.1537205364,0.1558431735,0.1578720436,0.1598003735,0.1614946724,0.163079654,0.1648399214,0.1667503127,0.1688427204,0.1707770334,0.1726038063,0.1745442865,0.1765505384,0.1785909796,0.1805395319,0.1825190636,0.1843994034,0.1861013993,0.1876732818,0.1890849204,0.1902479293,0.1912137536,0.1914733496,0.1912221269,0.1899782411,0.1880390756,0.1852682303,0.1819147802,0.1782946293,0.1744811678,0.1709038107,0.1674856685,0.1645317824,0.1619958063,0.159353281,0.1565076856,0.1530315272,0.14929879,0.1456024104,0.142829622,0.1415089208,0.1408827225,0.1395812077,0.1373037283,0.1345965932,0.1316973646,0.1286637174,0.1260255121,0.1241412252,0.1226943501,0.1208876419,0.1186539216,0.1163496054,0.1137980983,0.1113408731,0.1089573414,0.1066788216,0.1042492739,0.1021189858,0.09956848165,0.09729690298,0.09483622563,0.09189249419,0.08956782149,0.08700123956,0.08429362601,0.08191783078,0.07939300735,0.07684275714,0.07461957969,0.07232139675,0.07064871598,0.06875445924,0.06744071635,0.06589125426,0.06434326137,0.06323216733,0.06248452863
0.5768095284,0.57851855,0.5797837789,0.5812296393,0.5826336779,0.5839751293,0.5851423594,0.5863231897,0.5873547093,0.588288096,0.5890448006,0.5896044555,0.5901319934,0.5905349642,0.5908675287,0.5910151494,0.5911091382,0.5909432475,0.5906162197,0.5901579867,0.5896494775,0.5889110038,0.5881479162,0.587271425,0.5859983143,0.5842198521,0.5812604201,0.5765026455,0.5698269186,0.5619971008,0.5543554556,0.5480672194,0.5435900419,0.5406232381,0.5386320442,0.5371283168,0.5358305053,0.5344748686,0.533392739,0.5327459904,0.5326829718,0.533142491,0.5340568819,0.5353148219,0.5368613819,0.5384792266,0.5398980228,0.5412618433,0.5425461695,0.5437034381,0.5446819575,0.5455053672,0.5460288077,0.5463396022,0.5463963786,0.5461500136,0.5455499455,0.5446653016,0.5433145339,0.5415376835,0.5391780395,0.5360809453,0.5320662363,0.5271197198,0.5212815732,0.5144585069,0.5067813963,0.4985871114,0.4901970744,0.4820329504,0.4743685946,0.4671226869,0.4597657503,0.4514274804,0.4407547321,0.4260880171,0.405513889,0.377633492,0.3435892595,0.3070897822,0.2719217733,0.2417406876,0.2179433902,0.2002401874,0.1874088458,0.1780707218,0.1714252774,0.1668200206,0.1637981956,0.162059833,0.1612236587,0.1611445889,0.1619547203,0.1640018341,0.1674180818,0.1721250989,0.1777867526,0.1841555291,0.1910193315,0.1982142172,0.205736027,0.213420378,0.2211765531,0.2289198889,0.2366215924,0.2442266826,0.2516812242,0.258866983,0.2658664717,0.2726390304,0.2792347582,0.2855262795,0.2914376428,0.2970414187,0.3023626637,0.3075159339,0.3124915954,0.3173649894,0.3220102616,0.3264753101,0.330750279,0.3348742947,0.3387565361,0.3424341011,0.3458569215,0.3488999091,0.3516871167,0.3542473226,0.3566562492,0.3587054445,0.3603181579,0.3614466741,0.3619952235,0.3620498528,0.3616505855,0.3607575262,0.3592281905,0.3571610104,0.3547354324,0.3522173194,0.3496793663,0.3470255619,0.3442238765,0.3414115939,0.3386616871,0.3360151223,0.3335117785,0.3311405337,0.3286896741,0.3257603579,0.3223611199,0.3188150978,0.3153006546,0.3122706146,0.3095944788,0.3074185323,0.3058864587,0.3050150109,0.3046912481,0.305022573,0.305664419,0.3084911873,0.3096260032,0.3105769287,0.3111538619,0.3113034095,0.3109129395,0.3096930547,0.30718031,0.3028289236,0.2959414701,0.2856287295,0.2711731898,0.2520540932,0.227471481,0.197687589,0.165441731,0.1333043726,0.1042735085,0.08076911881,0.06406153219,0.0532386854,0.0467085623,0.04281502779,0.04050245779,0.03918674294,0.03863336206,0.03865159879,0.03921723865,0.0402080405,0.04157977104,0.04330347853,0.04528776556,0.04755463641,0.05005421192,0.05277613892,0.05574105388,0.05893714132,0.06230091611,0.06580077501,0.06941826404,0.07309908261,0.07680535004,0.08047936839,0.08413700872,0.08768716866,0.09108539186,0.09439041781,0.0974518788,0.1003614939,0.1032425538,0.106195599,0.1093379042,0.1126769537,0.1162049993,0.1196984774,0.1231706913,0.1265720236,0.129838152,0.1330473993,0.1362230669,0.1393534512,0.1424648897,0.1455242507,0.1484415638,0.1512606792,0.1539218078,0.1562754856,0.1583880273,0.1603935884,0.1623491253,0.1641626419,0.1657585257,0.1672732682,0.1688781377,0.1706763568,0.1726237372,0.1746115486,0.1765708516,0.1783921441,0.1800629175,0.1814701761,0.1824196691,0.1830607199,0.183197002,0.1827326443,0.1814650785,0.1796476744,0.177277952,0.1745333231,0.1714454792,0.1679931478,0.164343141,0.1605260551,0.1568065333,0.1533783647,0.1501788643,0.1471222485,0.1442321564,0.1411087485,0.137869376,0.1347427243,0.13206696,0.1299946735,0.1283162107,0.1264135962,0.1238482086,0.1212634559,0.1183330556,0.115385322,0.112736704,0.1105187339,0.1083152628,0.1059368555,0.1035158403,0.1010401033,0.09855623161,0.09582404442,0.09329130484,0.09068903867,0.08792879894,0.08531374748,0.08237216731,0.07977299491,0.07686640935,0.07413105269,0.07133623443,0.06878592672,0.06628636599,0.06352797538,0.06096506261,0.05845395541,0.0563603162,0.05430649642,0.05240808979,0.05057474378,0.04930471414,0.04780437378,0.04657183068,0.04570975918,0.04506857041
0.4803102774,0.4828303914,0.4839283142,0.4852268254,0.4865403581,0.4877702238,0.4889565816,0.4900509037,0.4909557304,0.4918758146,0.4924989963,0.4931079331,0.4935070901,0.494008434,0.4941634984,0.4942181421,0.4941788989,0.4940571935,0.4938775934,0.4934490751,0.4929268687,0.4922913885,0.4915582431,0.4907332349,0.4895343754,0.4878082376,0.4851635418,0.480974827,0.4753131226,0.4687297105,0.4623340192,0.4570178105,0.4531881746,0.4508012098,0.4492477014,0.4481696453,0.4472058881,0.4462572233,0.4454180251,0.4448800648,0.4447889779,0.4450335087,0.4455464324,0.4463587573,0.4474050675,0.4485602539,0.4496824093,0.4507138841,0.4517373745,0.4527159455,0.4535169307,0.4542054618,0.4546381823,0.4549659177,0.4550838814,0.4548599934,0.4544089653,0.4536351502,0.4525104667,0.450972152,0.4487752701,0.446032109,0.4426905956,0.438522945,0.4335691218,0.4277678145,0.421319692,0.4144005231,0.4073264383,0.4005437101,0.3942224431,0.3883175748,0.3823904461,0.3756290117,0.3669831868,0.3550107522,0.3382480671,0.315297833,0.2870771175,0.2565296973,0.2268723519,0.2012036069,0.1806527268,0.1651963004,0.1538791588,0.1456283857,0.1396917137,0.135571555,0.1329014974,0.1313191617,0.1305452082,0.1304685784,0.1311353575,0.132792679,0.1356287909,0.1395481441,0.1443827061,0.1497912379,0.1557045574,0.1618972805,0.1683517444,0.174897193,0.1815577666,0.1882277846,0.1948384393,0.2013674079,0.2077573668,0.2139225721,0.2199583589,0.2257854507,0.2314155632,0.2368304794,0.2419931224,0.2468837077,0.251458454,0.2558549294,0.2599960092,0.263974069,0.2677684666,0.2714544147,0.2749951268,0.2783823109,0.2815611341,0.2845016959,0.287196898,0.2896714179,0.2919310802,0.2938562053,0.2954614144,0.2965961465,0.2972596,0.2974580914,0.2972580456,0.2970282844,0.2969306216,0.2969099125,0.2968161885,0.2963627193,0.2956076571,0.2945465091,0.2932399433,0.2916661682,0.2897822585,0.2876556581,0.285372504,0.2830986987,0.2809267726,0.2787925878,0.2766060788,0.2740452985,0.2711792283,0.2680456817,0.264980089,0.2621472483,0.2597127788,0.2577573219,0.2561784074,0.2552055412,0.2546740362,0.2546910005,0.254945623,0.2566133237,0.2572234618,0.2576699386,0.2580061176,0.2580418259,0.2575845281,0.2564651583,0.2543302212,0.2507262099,0.245127936,0.2369323496,0.2253434668,0.2099088411,0.1898684317,0.1654468957,0.1385444565,0.1117673486,0.08771146048,0.06853479528,0.05536968724,0.04726196282,0.04264523651,0.04000272244,0.03853334822,0.0377585232,0.03744696476,0.03751397929,0.03788260439,0.03850800886,0.03935100161,0.0403909047,0.04163240198,0.04307365234,0.04472007423,0.0465284411,0.04855662101,0.05077443919,0.05315530295,0.05572320712,0.05842396065,0.06121065679,0.06410160909,0.06699741821,0.06985822555,0.07283275242,0.07570172631,0.07846830934,0.08114129466,0.08376845734,0.08631356323,0.08890351066,0.09155731585,0.09424285505,0.09700776484,0.09976375217,0.102448288,0.1051715899,0.1077371331,0.1103121133,0.1127268014,0.1151446916,0.1174391621,0.1196132036,0.1217052654,0.1236882976,0.1255124385,0.1272498751,0.1288971211,0.130695459,0.1325739341,0.134446024,0.1362140267,0.1378693056,0.1394936654,0.1411733877,0.1429215996,0.1445954212,0.1461619619,0.1477553489,0.1492167552,0.1505507773,0.1517296673,0.1525569809,0.1530164045,0.1530522036,0.152489805,0.1512580253,0.1493343723,0.1469168003,0.1442781998,0.141371485,0.1385488575,0.1359132305,0.1334835318,0.1313203618,0.1295559006,0.127766707,0.1257863006,0.1234502341,0.1207766457,0.1179425579,0.1153999082,0.1132978456,0.1115151707,0.1095118075,0.1073124767,0.1048374848,0.1022403133,0.0997873614,0.09746923793,0.09542641883,0.09351720332,0.09145512032,0.08938766781,0.08730189261,0.08505043945,0.08265405513,0.08054144974,0.07843387361,0.07631991868,0.07402473114,0.07179747178,0.06952174447,0.06724868361,0.06495512726,0.06314654631,0.06073261763,0.05853637331,0.05682858341,0.05469907617,0.05287737461,0.05125519759,0.04987331077,0.04841154921,0.047097523,0.04606959804,0.04519594375,0.04445872298,0.04360232308,0.04329721736
0.4816790027,0.4788657862,0.4795535737,0.4807441703,0.4814672981,0.4824974316,0.4831735495,0.484104978,0.484733387,0.4853129992,0.485701463,0.4858631111,0.4861690106,0.4865209078,0.48694201,0.4873033375,0.4875887874,0.4878073999,0.4878786408,0.4878088036,0.4874188995,0.4870327848,0.4865434225,0.4860376247,0.485090852,0.4838598951,0.4819369013,0.4787624979,0.4744775875,0.4692833368,0.4640728214,0.4594349022,0.4563053936,0.4542902388,0.4530268315,0.4521973585,0.4513386382,0.4506947388,0.4500591664,0.4498162489,0.4498651871,0.4502325697,0.4507174341,0.4517055446,0.452652949,0.4536982229,0.4546775114,0.4555429123,0.4565460087,0.4574243049,0.4581690757,0.4587616992,0.4592280306,0.4595504965,0.4597312537,0.459656212,0.459283497,0.4587586716,0.4578822561,0.4568325388,0.4554768707,0.4536613374,0.4512662955,0.4482154763,0.4443820822,0.4397882488,0.4345311955,0.4287605882,0.4227124142,0.4167817471,0.4110901264,0.4057698624,0.4003364616,0.3942674493,0.3865725615,0.3760199595,0.3610089245,0.3402651276,0.3142425833,0.2852900669,0.2560780364,0.229884612,0.2083748901,0.192032586,0.1802486625,0.171877853,0.166161486,0.1624205628,0.1601179608,0.1589044006,0.1583751885,0.1584853985,0.1592382223,0.1610300205,0.1639352196,0.1680745131,0.1730784074,0.1786852631,0.1847098451,0.1909243723,0.1972827048,0.2036606697,0.2100298304,0.2163395529,0.2225447674,0.228526576,0.2343260092,0.2399099842,0.245258201,0.2503837902,0.2552911255,0.2600056557,0.2644516022,0.2685898726,0.2725059045,0.2763464523,0.2800845939,0.2836696387,0.2871106134,0.2903968521,0.2937649406,0.296908908,0.2999079136,0.3027370104,0.3053431032,0.3077414695,0.3100142081,0.3119371936,0.3135884559,0.314824403,0.3156420829,0.3158662062,0.3158552104,0.3159611161,0.3162649393,0.3164764993,0.3162824958,0.3152955778,0.3138719483,0.3120781293,0.3102741433,0.3083336183,0.306529713,0.3045535147,0.3027226808,0.3009189513,0.2990899165,0.2971956082,0.2950717632,0.2926947984,0.2900753122,0.2874998762,0.2847576734,0.28221474,0.2801625342,0.2781628456,0.2768537744,0.2758841407,0.2754392679,0.2755298625,0.2757775073,0.2715534688,0.2724187969,0.2732049947,0.2737046786,0.2740094,0.2739411178,0.2732316522,0.2716477906,0.2687099327,0.2638856123,0.2564880166,0.2457056272,0.2311539308,0.2118152542,0.1878548113,0.1611781981,0.1338855107,0.1085884479,0.08770049581,0.07284200439,0.06322654477,0.05754677698,0.0543560017,0.05261635916,0.0516892361,0.05140802038,0.05161579048,0.05227027058,0.05329801304,0.0546283246,0.05627198594,0.05812231726,0.06027348179,0.06254306801,0.06515220979,0.06787847934,0.0708092336,0.07401142935,0.07723613815,0.08061779527,0.08393833559,0.0873021982,0.09066621558,0.09384447797,0.09683126314,0.09960923393,0.1022098397,0.1045436675,0.106741427,0.108857846,0.1108896666,0.1131207541,0.1152984837,0.1175077431,0.1195682156,0.1216313109,0.1236143299,0.1255181541,0.1273076853,0.1290804379,0.1307770598,0.1325038487,0.1340178714,0.1355874953,0.1369039772,0.1382058737,0.1393804802,0.140415477,0.141598759,0.1428909613,0.1443215237,0.1456520287,0.146913488,0.1482592789,0.149832456,0.1513590362,0.1529115418,0.1546105621,0.1564288852,0.1581363708,0.15974602,0.161256832,0.1626755642,0.1637970373,0.164337937,0.1642312885,0.1633955466,0.1620647116,0.1600457874,0.157726572,0.1551581348,0.1524196574,0.1497844243,0.1470211969,0.1446591426,0.1422970408,0.1400328052,0.138248587,0.1361818035,0.133949806,0.1313800353,0.1289453678,0.1269860796,0.1254359474,0.1238778316,0.122007243,0.120004746,0.1178617612,0.1156415838,0.1138293254,0.1123612174,0.1108344408,0.1091794919,0.1073143998,0.1052974839,0.1032025528,0.1010797977,0.09910986639,0.09663343181,0.09420855887,0.09183209464,0.0892682589,0.08658573803,0.08399664863,0.08108330227,0.07881255877,0.07603296067,0.07386103966,0.07170637775,0.06899580402,0.06686554721,0.06465707414,0.06298883297,0.06141548129,0.06006350186,0.05871609882,0.05746556941,0.05668595927,0.05531902351,0.05495201727
0.5583658192,0.5622678388,0.5638213599,0.565705339,0.5675347927,0.5694105727,0.5709626112,0.5726373104,0.5739812009,0.5752667461,0.5764112971,0.5775414835,0.5784095563,0.5790236685,0.5796369362,0.5798873003,0.5799771299,0.5798462096,0.5793872632,0.5787860925,0.57800461,0.5769701,0.57578261,0.5743908627,0.5724155555,0.5694524065,0.5648862938,0.5584092453,0.5498600084,0.5398763528,0.5296028686,0.5203513726,0.512874856,0.5071621921,0.5029847158,0.4994799531,0.4964176073,0.4934166963,0.4909781228,0.4892336229,0.4882322812,0.488369625,0.489804974,0.4921840553,0.4950693745,0.4979810044,0.5007161784,0.5032281206,0.5053254514,0.5071960586,0.5087335118,0.5100012102,0.5109812737,0.5117783516,0.512184656,0.5122022682,0.5118505344,0.5110346379,0.5095991867,0.5076018487,0.5047390581,0.5009160755,0.4960909432,0.4899648089,0.4827332772,0.4741801921,0.4645679293,0.4542533797,0.4436893713,0.4333595405,0.4237612982,0.4147795563,0.4059114032,0.3962895712,0.3847761082,0.3697312296,0.3492042219,0.3218370387,0.2888193938,0.2536975368,0.2198041593,0.1905409086,0.1670835523,0.1493540228,0.1363552613,0.1268918305,0.1200306664,0.1151972981,0.1119385804,0.1098964523,0.1087443721,0.10827144,0.1084556968,0.1094704104,0.1114569419,0.1144231773,0.1182322447,0.1226163318,0.1274934326,0.1326625236,0.1381175926,0.1437358957,0.1494026753,0.1550791203,0.1607703598,0.1663396568,0.1718674573,0.177144894,0.1823017259,0.1872580669,0.1920762563,0.1966519921,0.2010948096,0.2053378026,0.2095066526,0.2135511667,0.2174914423,0.2212996881,0.225145127,0.2288613965,0.2325132231,0.2360889619,0.2395022855,0.242768275,0.2458494244,0.2486155589,0.25113664,0.2534481943,0.2554557445,0.2569583907,0.2577038097,0.2575684232,0.2569106886,0.2559805298,0.2550763242,0.2541300923,0.2527525255,0.2506034364,0.2476614868,0.2443161435,0.2410911298,0.2376092996,0.2336885263,0.2301789339,0.2279278907,0.2264668362,0.2254020396,0.2242816926,0.2226288995,0.2204947353,0.2180614389,0.2157656811,0.2138848648,0.2124069939,0.2113326196,0.210301415,0.2096179802,0.2098717523,0.210763348,0.2118525743,0.2130626095,0.2147572386,0.2160300284,0.2171259125,0.2181024309,0.2187826606,0.219006202,0.2186665331,0.2173979828,0.2148300383,0.210429647,0.2035418806,0.1935258799,0.1801004209,0.1626742943,0.1414969413,0.1185888796,0.09583980061,0.07547693438,0.05923042583,0.04805917023,0.04107227583,0.03708594112,0.03476628308,0.0335089338,0.03280963652,0.03248378522,0.03243440762,0.03260639959,0.03299464452,0.03350240219,0.03419791077,0.0350539059,0.03600814243,0.03711387353,0.0384015271,0.03980150051,0.04132506982,0.04294424046,0.04466636947,0.04644765292,0.04831624006,0.05022238615,0.05214574623,0.05404078414,0.05581024689,0.05750732561,0.05910847543,0.06058982244,0.06200271173,0.06333151038,0.06458820694,0.0659030448,0.06725009908,0.06859436045,0.0699382292,0.07130885609,0.07262425686,0.07395483868,0.07522830596,0.07651162665,0.07781160337,0.07910545712,0.08034915511,0.08157732022,0.08275925085,0.08387467548,0.0850209845,0.08614120414,0.08741876067,0.0887847012,0.09030024122,0.09198679791,0.09367999989,0.09546794448,0.09717521132,0.09899026232,0.1007021655,0.1024934521,0.1041548188,0.1057252163,0.1071765572,0.1083869991,0.1094730914,0.11028747,0.1106682838,0.1104110819,0.1094353165,0.1076151242,0.1050646218,0.1020017498,0.098476749,0.0947866842,0.09120224006,0.08784731492,0.08493191609,0.08246583275,0.08022073659,0.07802750438,0.07579225717,0.07364298186,0.07176496608,0.07080422323,0.07049920067,0.07009216493,0.06918640965,0.06790469656,0.06664601736,0.06530299443,0.06394284068,0.06282434672,0.06200227777,0.06129065866,0.060409902,0.0594389826,0.05847158116,0.05756719086,0.056256968,0.05511372646,0.05393929333,0.05276613093,0.0513100408,0.05025521343,0.0488660587,0.04784749297,0.04655733926,0.04546978749,0.04423109117,0.0427553544,0.0418765955,0.04073216966,0.03950293564,0.0387488667,0.03802291683,0.03715136351,0.03666525782,0.03646944093,0.03600164286,0.03541822457,0.03512751267,0.03477619247
0.551900486,0.5559318503,0.5569559105,0.5577586412,0.5589100243,0.5597944431,0.5605462786,0.5614260277,0.5620591976,0.5626630451,0.5633335091,0.5639155354,0.5644130602,0.5647610159,0.5651420059,0.5653487916,0.5653995512,0.5653013962,0.5650064735,0.5647784498,0.5643798565,0.5638825004,0.5634240863,0.5627083898,0.5617609607,0.5604150206,0.558367609,0.5550147086,0.5505186477,0.5451033818,0.5398513331,0.5354798286,0.5321876987,0.5299933129,0.5284935311,0.5273858623,0.5262724714,0.5251170378,0.5241470091,0.5235398513,0.5232856903,0.5233427049,0.5237419248,0.5245070577,0.525642081,0.5269804163,0.5282532293,0.5293725281,0.5304521043,0.5314620413,0.5322372265,0.532896965,0.5334123108,0.5337354552,0.5338699043,0.5337954126,0.5334171086,0.5328781022,0.5319717487,0.5306847922,0.5290470353,0.5267455831,0.5238020341,0.5201345106,0.5157929117,0.5106388441,0.5048356698,0.4985480782,0.4920749291,0.4857595625,0.479792983,0.4742050299,0.4684981071,0.4619509857,0.4534107626,0.4415058743,0.424374683,0.4003326976,0.3698373106,0.3359415753,0.3021469686,0.2720188377,0.2473320714,0.2283187983,0.2140616846,0.2033946307,0.1955784787,0.1900081581,0.1862386419,0.1839531898,0.1827481044,0.1824613014,0.1831798833,0.1852355325,0.1887492117,0.1937077739,0.1996991268,0.2064288541,0.2136816597,0.2212921708,0.229188758,0.2372175436,0.2452619132,0.2532935282,0.2612148641,0.2689829327,0.2765532898,0.283780293,0.290798769,0.297534529,0.3039553849,0.3101194029,0.3159892627,0.3215519409,0.3268205775,0.3319133963,0.3367295196,0.3413324405,0.3457183659,0.3499541731,0.3539898276,0.3577523887,0.3613467474,0.3646872166,0.367736528,0.3705878777,0.3731862613,0.3755707123,0.3776234078,0.3792273257,0.3802372623,0.3806046122,0.3804794157,0.3800577542,0.3795307764,0.3789953382,0.3782948676,0.3771741457,0.3756799089,0.3740733442,0.372345453,0.3702510537,0.3678381185,0.3651543206,0.3622876347,0.3592625248,0.3563916784,0.3544056277,0.3528376204,0.3506222337,0.3476401721,0.3440602655,0.3405091019,0.3373068404,0.3350061454,0.3333176207,0.3321552373,0.3313021707,0.3311106712,0.3313670444,0.3320038927,0.3346309494,0.3356615892,0.3364792974,0.337099986,0.337288697,0.3370418169,0.3359274233,0.333586373,0.3296055574,0.3232100902,0.3136474334,0.299860095,0.2812139316,0.2567723559,0.226257738,0.1921362836,0.1569068801,0.1239939569,0.09649287334,0.07638770815,0.06305203782,0.05485140956,0.04994989556,0.04693158179,0.04523630589,0.04441178966,0.04436881196,0.04499286211,0.04617774344,0.04779731413,0.04981573334,0.0521174604,0.05479467359,0.05773972965,0.06099141714,0.06451090576,0.06828368208,0.07225105787,0.07633769535,0.08054550803,0.08479890744,0.08911230803,0.09340213037,0.09753846978,0.1016274157,0.1055281543,0.1093006115,0.1128562457,0.1163022523,0.1196214323,0.1230047728,0.1265291055,0.1301492301,0.1339422564,0.1376999531,0.1413518624,0.1450258186,0.1486331026,0.1521991636,0.155725632,0.1591819116,0.1626202881,0.1659038202,0.169152006,0.1721296833,0.1748688669,0.177436658,0.1799355642,0.1825561436,0.1850761703,0.1874611293,0.1896483594,0.1917909543,0.1940795335,0.1964103536,0.198749859,0.2010324502,0.2032773662,0.2053488198,0.2073316372,0.2090343971,0.210440012,0.2115119147,0.2120349147,0.2120135622,0.2111186152,0.2092840325,0.2066133216,0.203194936,0.1991525973,0.1945368572,0.1897795173,0.1853018778,0.1813037294,0.1778372554,0.1748555097,0.1721515297,0.1692650527,0.1656923737,0.1615741503,0.1570586284,0.1529844852,0.1503690239,0.1494605326,0.148160712,0.1454768973,0.142146848,0.1387049604,0.1349515661,0.1316509197,0.1290616882,0.1269934898,0.1246414485,0.1218085883,0.1189215671,0.1158752064,0.1126159075,0.10959946,0.1065001695,0.103595258,0.1003809425,0.09723351579,0.09414898569,0.09068856495,0.08746107162,0.08433287346,0.08120472367,0.07810545084,0.07484254309,0.07200781723,0.06911333242,0.06629126357,0.06401624184,0.06161333198,0.05950081098,0.05804722477,0.05611602333,0.05469999161,0.05345415866,0.05211354643
0.4739185596,0.4758792279,0.476987485,0.4783351413,0.4795059107,0.480746477,0.481908472,0.4830099115,0.4840698758,0.4850752483,0.4858336387,0.4864604644,0.4868186377,0.4871253979,0.4872157707,0.4872092221,0.4871282858,0.4868773342,0.4864910337,0.4860393025,0.4853132363,0.48466,0.4839213063,0.4829256043,0.4816759547,0.4798037093,0.4768171415,0.4721784344,0.4658325794,0.458164146,0.4506322518,0.4442633253,0.4396799376,0.4364924573,0.4342075751,0.432350211,0.4304956128,0.4286759023,0.4272099912,0.42647427,0.4264355654,0.4269289628,0.4278716854,0.4292655374,0.4310688848,0.4329837245,0.4348369835,0.4364338974,0.4377962489,0.4389908737,0.4400128792,0.4408643304,0.4415095263,0.4419284834,0.4421079752,0.4419329511,0.4414418667,0.4405499402,0.4392148968,0.4373851144,0.4349723081,0.4318377085,0.4279771784,0.4233134994,0.4176702284,0.4111718624,0.4039304852,0.3961419376,0.3881615748,0.3803833417,0.3730244736,0.3660905968,0.3590771614,0.3512333456,0.3413385345,0.328062019,0.3098079071,0.285436526,0.2562107611,0.2254556062,0.1964456829,0.1720371179,0.1530879,0.1392831438,0.1295363648,0.1226608921,0.1178026843,0.1145263532,0.1123602576,0.1110872114,0.1104755564,0.110374563,0.1108166594,0.1120741445,0.1143138982,0.1174667065,0.1213718119,0.1258052148,0.1306556983,0.1358095234,0.1411771479,0.1467301845,0.1523740232,0.158122311,0.1637899023,0.1694757043,0.1750728828,0.1804594894,0.1857785586,0.1909312283,0.1958804618,0.2007543324,0.2053424012,0.2097417694,0.213905229,0.217923379,0.2218366975,0.2255646036,0.2292355263,0.2327902186,0.2362168579,0.2395008442,0.2426069161,0.2454987239,0.2481017755,0.2503939974,0.2524572999,0.2543557911,0.2560472842,0.2572792887,0.2580140508,0.2582026185,0.2580929429,0.2576921344,0.2570754989,0.2557063647,0.2533684394,0.2500948946,0.2464301332,0.2429794701,0.2398847356,0.2371695408,0.2348028668,0.2326729199,0.2307930717,0.229066624,0.227540887,0.2263521493,0.224875962,0.222881481,0.2203551172,0.2176585548,0.2151503798,0.213053651,0.2114309792,0.2103213749,0.2095303782,0.2090952898,0.2089987612,0.209160464,0.2096486961,0.2100466315,0.2108014041,0.2114083781,0.2118985315,0.2120292548,0.2118068684,0.2108982821,0.2091219102,0.2060427589,0.2010641227,0.1936462874,0.1831555081,0.1694761674,0.1522011305,0.1317630221,0.1104064304,0.09021282904,0.07292863738,0.05977759789,0.05094255586,0.04544185398,0.04221581257,0.04035963708,0.03925366566,0.03864848762,0.03836618022,0.03834705104,0.0386025097,0.03904085398,0.03967197013,0.04045404159,0.04133972972,0.04238985609,0.04351429695,0.04478166998,0.04613940758,0.04763033419,0.04916260657,0.05083124405,0.05256518907,0.05435036331,0.05618851424,0.05801268349,0.05981538339,0.06165570087,0.06334322254,0.0650339047,0.06661900222,0.06806364093,0.06952928863,0.07098466192,0.07247173488,0.07403986056,0.07564575175,0.07730401349,0.07896262102,0.08064712575,0.08224820482,0.08387138783,0.08540885312,0.08690180423,0.08839750882,0.08979049161,0.09117236375,0.09251020526,0.09378750063,0.09501289428,0.096188969,0.09743351875,0.0986939723,0.09985278336,0.1009657547,0.1019795705,0.103008194,0.1041124355,0.1053387126,0.1065880833,0.1077593253,0.1089198287,0.1099230002,0.1108422591,0.1115998365,0.1121230016,0.1123308536,0.1121433429,0.1114304725,0.1100021875,0.1079859707,0.1054255497,0.1025900133,0.09942087672,0.09632407309,0.09342825188,0.09072883772,0.08851326775,0.08663887822,0.08498411032,0.08309994624,0.08094963821,0.07886225581,0.07709579032,0.07591609889,0.07539653588,0.07518777465,0.07470207029,0.07365284819,0.0724217392,0.07099497753,0.06963111813,0.06843845373,0.06764957936,0.06689917535,0.06600753875,0.06495840851,0.06396779613,0.06269642741,0.0615693707,0.06033867962,0.05911177841,0.05785981091,0.05644773291,0.05535265866,0.05388102996,0.05305612503,0.05187165134,0.05052755798,0.049317597,0.04832754157,0.04715054145,0.04611466544,0.04495875997,0.04405871749,0.04312315242,0.04245960367,0.04180795678,0.0411846826,0.04088691102,0.04017697341,0.04009362514,0.03957212016
0.472958015,0.469805906,0.471274703,0.472788307,0.474450962,0.476207818,0.47782255,0.479170713,0.480465197,0.481583595,0.482484894,0.483259462,0.483841008,0.484358843,0.484579533,0.484689976,0.484604319,0.484316589,0.483868759,0.483261695,0.482423944,0.481438707,0.480242138,0.478916174,0.477232365,0.474698926,0.470618182,0.464211559,0.455291407,0.444864968,0.434710522,0.426347856,0.420209648,0.415819214,0.412497611,0.409576136,0.406697583,0.403831838,0.401630506,0.400425884,0.400213015,0.400883199,0.402288341,0.404469243,0.407260542,0.410350845,0.413217602,0.415648275,0.417730729,0.419565649,0.421174668,0.422433534,0.42340269,0.4239439,0.424107989,0.423916897,0.423319088,0.422187562,0.420526845,0.418311663,0.415323062,0.411472945,0.406700377,0.400872237,0.394053541,0.386243317,0.377600821,0.368521407,0.359344112,0.350475362,0.342083095,0.334071265,0.326069486,0.317273812,0.306462585,0.292072522,0.272558836,0.247515956,0.218587982,0.189495493,0.163272942,0.142158952,0.126295954,0.114926393,0.106909325,0.10115556,0.097035586,0.094113799,0.092122055,0.090904581,0.090223736,0.09001833,0.090364681,0.091380663,0.093250965,0.095859411,0.099105106,0.102803725,0.106915379,0.111359472,0.11609337,0.1210159,0.126134405,0.131380261,0.136692624,0.142075076,0.147469039,0.152772283,0.158020609,0.163178751,0.168273765,0.173262576,0.178030864,0.182665016,0.187047431,0.191308851,0.195426833,0.199386444,0.203222733,0.206932696,0.210495591,0.21382901,0.216995381,0.219936405,0.222579673,0.224929872,0.226969561,0.228953327,0.230874051,0.23257601,0.23376519,0.234384152,0.234472939,0.23415394,0.233208867,0.231310019,0.228232125,0.224228479,0.219796594,0.215181719,0.210959802,0.207306897,0.204300735,0.202036652,0.200274981,0.198670938,0.197400942,0.196618478,0.195712402,0.19376506,0.191075408,0.188438136,0.186275811,0.184771511,0.183742588,0.183054828,0.18259742,0.18238525,0.182499534,0.182932379,0.183504888,0.181313075,0.18248276,0.183370292,0.183842462,0.183953048,0.183653537,0.182718775,0.18086434,0.177838478,0.173027103,0.165887376,0.156069581,0.143397392,0.127714819,0.110056577,0.092022736,0.075308026,0.061305633,0.050699162,0.04363631,0.039278778,0.036744071,0.035278915,0.034415018,0.033890663,0.033656831,0.033684241,0.033830382,0.034190328,0.034660107,0.035243488,0.035960739,0.03680073,0.037738047,0.038727944,0.039870856,0.041076215,0.042388115,0.043744559,0.045143577,0.046596295,0.048136053,0.04965626,0.051164166,0.052710166,0.054209434,0.05569128,0.057153752,0.058578255,0.060004951,0.061460151,0.06300812,0.064630754,0.066367192,0.068113531,0.06986468,0.071636767,0.073365111,0.075039358,0.076730716,0.078326323,0.079918735,0.081430337,0.082897635,0.084325977,0.085689074,0.086911998,0.088037211,0.089102518,0.090202838,0.09122914,0.092173102,0.092953297,0.093788843,0.094683983,0.095705591,0.096694345,0.097642567,0.098539883,0.099196775,0.099728269,0.100106718,0.100272243,0.100199478,0.099859281,0.099050734,0.097706291,0.095939463,0.093814512,0.091326195,0.088544463,0.085723114,0.082932436,0.080432173,0.078467272,0.076762397,0.074924218,0.072743133,0.070410414,0.068189742,0.066500898,0.065689242,0.065609822,0.065808991,0.065691043,0.064738272,0.063507502,0.062102716,0.06058574,0.059480843,0.058789348,0.058245122,0.057492526,0.056609208,0.055827845,0.05497829,0.053946083,0.053057635,0.052088119,0.050981423,0.050297933,0.049357334,0.04826976,0.0474579,0.04649264,0.045626061,0.045068367,0.044101413,0.043028198,0.042534005,0.041387979,0.040763579,0.039842627,0.039086641,0.038759978,0.03823868,0.037931105,0.037711012,0.037402444,0.036822124
0.4327472028,0.4356658717,0.4368124802,0.4379918631,0.4393125529,0.4404305347,0.4414939342,0.4425172321,0.4434216977,0.4441478109,0.444774728,0.445430957,0.445715377,0.4460437912,0.4461964202,0.4461177748,0.4459715173,0.4456588035,0.4453220756,0.4448245522,0.4441930349,0.4434790414,0.4427097765,0.4417874686,0.4406351476,0.4388396384,0.43591325,0.4312089618,0.4248875378,0.4175817217,0.4105845835,0.4049830358,0.4011209582,0.398552387,0.3966576041,0.3950317916,0.393319216,0.3917218716,0.3905179102,0.3900099078,0.3900501875,0.3906858273,0.3917208012,0.3931506129,0.3948622231,0.3965824701,0.3982808881,0.3997238882,0.4009515842,0.4020372441,0.4029661956,0.4037095829,0.4042242944,0.4045196883,0.4046012001,0.4043607373,0.4037437597,0.4027407004,0.4012677571,0.3993221757,0.3968057605,0.3936934686,0.3898283544,0.3851102995,0.3795722274,0.3732277163,0.3661478577,0.3586802946,0.3510995665,0.3437907746,0.3368887555,0.3302875637,0.3235560006,0.315815776,0.3057139824,0.2919231453,0.272953722,0.2478912431,0.2184356704,0.1883419146,0.1607816973,0.1385436232,0.121965241,0.1103487241,0.1023123562,0.09666978878,0.09278785181,0.09011214894,0.08841148321,0.08746856115,0.08706918501,0.08714941129,0.08780496505,0.08924002289,0.09158080329,0.09478997223,0.09869620744,0.1031342368,0.1080477119,0.1132723101,0.1188079448,0.1245915491,0.1305504697,0.1366283344,0.142741363,0.1488797657,0.1549882177,0.1609770024,0.1668673693,0.1726351881,0.1783135721,0.1838112347,0.1890360028,0.1940524761,0.1988184354,0.2034024853,0.2078032102,0.2119724481,0.2159245575,0.2197209364,0.2232776917,0.2267134607,0.2298570828,0.2327956173,0.2354640981,0.2378498809,0.2400725969,0.242120546,0.2439866694,0.2456042193,0.2466753562,0.2473162684,0.2473900463,0.2469901149,0.2462740535,0.2448520855,0.2428108405,0.2402146473,0.2371694412,0.2339827127,0.2310175128,0.2283034059,0.225849598,0.2238007923,0.221875345,0.2198529063,0.2178220585,0.2159537143,0.2136284866,0.2107539611,0.2073866594,0.2042485439,0.2015593525,0.1994459145,0.1977120463,0.1962457737,0.1950466358,0.1942596595,0.193861876,0.193766556,0.1940621899,0.1955469922,0.1960708008,0.1965285024,0.1967443023,0.1966229256,0.1959605856,0.1945474581,0.192046004,0.188119476,0.1822172865,0.1736978419,0.1621032759,0.1473203734,0.1291799315,0.1085772467,0.08809314511,0.0698457604,0.05535294922,0.04503616079,0.03862020821,0.03487459381,0.03267672999,0.03143926761,0.03070431725,0.03027683368,0.03012080581,0.03014249052,0.03033530478,0.03063713654,0.031106914,0.03169641108,0.0323830183,0.03313772788,0.03400877236,0.03499391153,0.03603790212,0.03713937759,0.03836655702,0.0397020045,0.04111007045,0.04259530926,0.04415534726,0.04572895156,0.04730479925,0.04897967157,0.05062986293,0.0523053175,0.05395798587,0.05560572441,0.05730532095,0.05906777496,0.06086763485,0.06275608589,0.06469424138,0.06666405039,0.06866354087,0.07070538018,0.07274206929,0.07476921796,0.07679070918,0.0788043206,0.08074132781,0.08267302314,0.08451833574,0.0862898015,0.08798434742,0.08958804013,0.09105063022,0.09250205583,0.0938817378,0.09525406034,0.09656996774,0.09779850953,0.09901767545,0.1001771874,0.1012564504,0.1023268833,0.1033238636,0.104182021,0.1049311695,0.1054787847,0.1058280539,0.1060017747,0.1059438304,0.1056102618,0.1049057999,0.1037168546,0.1019254726,0.09971479949,0.09704257439,0.09416146689,0.09116053103,0.08822820702,0.08566926398,0.0833535502,0.08140213585,0.0791862848,0.07668064805,0.07404058895,0.07171831715,0.07011274473,0.06931939095,0.06904266577,0.06873036785,0.06790807427,0.06672535992,0.06502542305,0.06325978751,0.06155490812,0.06022459471,0.05925291814,0.05825613592,0.05721292235,0.05605222447,0.05497787638,0.0537582528,0.05271771386,0.05151980986,0.05035077255,0.04923106089,0.04804808565,0.04705555612,0.04611058722,0.0451409695,0.04428849958,0.04324268486,0.04250926223,0.04152826936,0.04045033672,0.03958565561,0.03859999261,0.03778499614,0.03715357673,0.03659119378,0.03604483821,0.03549060379,0.03541272056,0.03500946137,0.03447150332,0.0345390664
0.5999723537,0.6021588947,0.6036893146,0.6052682876,0.6069622198,0.6083544972,0.6098550565,0.611139026,0.6124283626,0.6134572534,0.6144547942,0.6151809639,0.6158127591,0.6162718216,0.616550158,0.6166999362,0.6166920747,0.6164174953,0.616037627,0.6154522921,0.6148033105,0.6138965123,0.613016138,0.611905022,0.6103993573,0.6082774436,0.6048379665,0.5993267755,0.5916226394,0.5826022803,0.5739455002,0.5668353913,0.5618992538,0.5586546625,0.556474855,0.5548896106,0.5534645803,0.5519556147,0.5506297568,0.5498490567,0.5497109568,0.5501326512,0.5509716702,0.5522846153,0.5539335599,0.5555838021,0.5571388114,0.5586292314,0.5599762593,0.5612754922,0.5623474217,0.5632437164,0.5638710747,0.5642405234,0.5642822427,0.5639757005,0.5633557529,0.5622802927,0.5607177064,0.5585732123,0.5557318515,0.5520716615,0.5473998682,0.5416946409,0.5350354832,0.5272806199,0.5186135126,0.509487988,0.5002908207,0.4913224915,0.4830058987,0.4752138781,0.4672754751,0.4582403189,0.4466866563,0.4307854122,0.4085654874,0.3786417655,0.3424352707,0.3041606624,0.267785343,0.2370300039,0.2130123962,0.1952847812,0.1824761862,0.1731530571,0.1664447129,0.1617362755,0.158562958,0.1567109364,0.1557863616,0.1555866401,0.1563117987,0.1582741436,0.16161185,0.1662407952,0.1718901599,0.1781996538,0.1850694678,0.1923290712,0.1998889405,0.2076908817,0.2155734321,0.2235456319,0.2314529447,0.2393745547,0.2471008005,0.2546412339,0.2620051386,0.2691762291,0.2761319992,0.282791929,0.2890697469,0.295051989,0.3007715763,0.3062547935,0.3116096692,0.3167668885,0.3216995114,0.3264101097,0.3309453021,0.3352822803,0.339366918,0.3432095896,0.3467599749,0.3498844575,0.3527959255,0.3554475793,0.357963951,0.3600947371,0.3617972497,0.3630009546,0.3636565214,0.3637891821,0.3635545171,0.3628238057,0.3614838681,0.3596236416,0.3572826862,0.3548542095,0.3523894935,0.3497776133,0.3469555647,0.3440767546,0.3411559122,0.3383789641,0.3356659904,0.3331835272,0.3304194301,0.3272473535,0.3235653014,0.3196767143,0.3158563449,0.3124425696,0.3096405111,0.3073004473,0.3056915434,0.304796099,0.3044202024,0.3046913858,0.3053479009,0.3067695662,0.3079351272,0.3088556487,0.3094059837,0.309606375,0.3091033808,0.3077301655,0.3049983483,0.3002491553,0.2928482125,0.2819787231,0.2667907854,0.2469022859,0.2216670844,0.1914665069,0.1592609216,0.1277688294,0.09985501863,0.0777331574,0.06235094555,0.05254321516,0.04672620063,0.04330992067,0.04127407174,0.04011512872,0.03959025118,0.03959414715,0.0400480228,0.04085911834,0.04202541298,0.04347361767,0.04515403554,0.04711289661,0.04929213837,0.05171659094,0.05432780122,0.05714452109,0.06017050868,0.06328943091,0.06656359345,0.06990800871,0.0733524195,0.07679252061,0.08019960436,0.08357378255,0.08684427726,0.09000979937,0.09306367618,0.09598767375,0.0988620844,0.1018166301,0.1049520926,0.1082810745,0.1117008149,0.1152040522,0.1186611185,0.1220450286,0.125363497,0.1286535962,0.1318582846,0.1350090019,0.1381959296,0.1412963894,0.1443118536,0.1471777147,0.1498900894,0.1523183506,0.1544930973,0.1567116057,0.1587378379,0.1606365862,0.1623202878,0.1639447857,0.1656980577,0.1675292515,0.1694764827,0.1714349187,0.173389615,0.1753131963,0.1769088798,0.1782227575,0.1792535121,0.1798698567,0.1799800675,0.1795835589,0.1784560213,0.1768418393,0.1745387523,0.1718739922,0.1688505148,0.165518707,0.1619690884,0.1582956846,0.1546893814,0.1511893005,0.1480435504,0.145018685,0.1420177326,0.1388944578,0.1355940479,0.1323671467,0.1296627284,0.1276037543,0.1258467279,0.1237110405,0.1211403664,0.1185652579,0.1155184857,0.1126060143,0.1099118573,0.1076082005,0.1053328431,0.1029425779,0.100494227,0.09813903261,0.09562515121,0.09295232811,0.09049548927,0.08795510976,0.08532494969,0.08286995046,0.08000486561,0.07739269682,0.07471763677,0.0722909646,0.06979158065,0.06717505676,0.06476303707,0.06244931097,0.06012907798,0.05793622293,0.05593833162,0.05362140248,0.05219388486,0.05057609271,0.0495439776,0.04820720874,0.04706384527,0.04663753632,0.0453548547
0.501337979,0.5054322659,0.5058802954,0.5064011668,0.5069185572,0.5073713823,0.5076965277,0.5081299895,0.5083361249,0.5084594072,0.5085356568,0.5087499523,0.5088290103,0.5088777298,0.508729588,0.5085586739,0.5082463053,0.5079430176,0.5074503979,0.5069353227,0.5061073308,0.5054381018,0.5045616427,0.5036305726,0.5024507051,0.5010132516,0.4991088564,0.4962777485,0.4924025757,0.4877066548,0.4829473257,0.4787683914,0.4755713592,0.4733524316,0.4718727644,0.4706648792,0.4696025809,0.4685270231,0.4675668328,0.4667691313,0.4662233202,0.4659683167,0.4659992097,0.4663268169,0.4670331508,0.4679008862,0.4686920274,0.4693570076,0.469912024,0.4703874119,0.4707142764,0.4708919673,0.4709732764,0.4709725015,0.4707657393,0.4703645313,0.4697612413,0.4690680209,0.4681380668,0.4668703239,0.4652554076,0.4631701385,0.4605741307,0.4574058363,0.453687219,0.4492683781,0.4443402843,0.4390258836,0.4335372699,0.4281661612,0.4230917812,0.4182844765,0.4134129329,0.4079544467,0.4010094742,0.3914201057,0.3776805633,0.3584688565,0.3339684599,0.3061829706,0.2778075942,0.2518896366,0.2301109358,0.2131188415,0.2003504927,0.190942085,0.1840754495,0.1792448962,0.1759764908,0.1740016484,0.1729382093,0.1727096075,0.1733181552,0.1750316649,0.1780136142,0.1822526792,0.1873687821,0.1931185939,0.1992676774,0.2056228708,0.2121204613,0.2186306506,0.2250843437,0.2314112926,0.2376271515,0.2436245816,0.2493823808,0.2548182659,0.2600302308,0.2650354746,0.2697766694,0.2742782561,0.2785015779,0.2824730619,0.2861833865,0.2897487437,0.2931246722,0.2963428445,0.2994544413,0.3024398176,0.305210744,0.3079049537,0.3104225807,0.3127300011,0.314909532,0.3167982399,0.3184086874,0.3196551743,0.3203661802,0.3204325837,0.3200404754,0.3197396693,0.320171328,0.3213138593,0.3225841162,0.3231850929,0.3230207661,0.322070061,0.3206330676,0.3188595493,0.3170379314,0.3150713761,0.3129752179,0.310677011,0.3083889722,0.3060815817,0.3040730873,0.3026039187,0.3013528418,0.2995421485,0.2970178264,0.2941705892,0.2912540113,0.2886500816,0.2866450343,0.2850480744,0.2837657594,0.2829894706,0.2825523682,0.2824653071,0.2826070574,0.2849421369,0.2854795818,0.2859369273,0.2862967851,0.2864865722,0.2863751743,0.2856548685,0.2840861665,0.2812532174,0.2766547853,0.2697638233,0.2595972764,0.2458352563,0.2273097962,0.2036468881,0.1762785907,0.1469647998,0.1185408781,0.09386666074,0.07526817723,0.06263390921,0.05486201415,0.05026266154,0.04757679212,0.04616549574,0.04559686037,0.04569511595,0.04641010976,0.04762009317,0.04919719161,0.05117071734,0.05339416634,0.05596775726,0.05876188227,0.0618111232,0.06513805701,0.06864527038,0.07231856593,0.07609348703,0.07997776412,0.0838349654,0.08771078091,0.09149511661,0.0951205762,0.0986440338,0.101938204,0.1049998308,0.1078103112,0.1104690601,0.1129479141,0.1153765576,0.1178122473,0.1203013427,0.1228633022,0.1253211962,0.1277350467,0.1299975857,0.1321836622,0.1342837666,0.1361988712,0.1381263436,0.1399074202,0.1414259943,0.1427918827,0.1440398271,0.1453951251,0.1468991201,0.148494621,0.1503781049,0.1522694382,0.154086973,0.1556731196,0.157107087,0.1585827453,0.160135132,0.161762282,0.1634631449,0.165219865,0.1668978111,0.1685911169,0.1701379955,0.1715969574,0.1729870497,0.174119889,0.1747758557,0.1746855052,0.1737794554,0.1720373908,0.1695573335,0.1667562645,0.1640265074,0.1614113695,0.1589092056,0.1564845195,0.1542725978,0.1521734729,0.1501107217,0.1479146014,0.1451781206,0.141865756,0.138284741,0.134890357,0.1326747352,0.1318649625,0.1309100544,0.1288860223,0.1265897331,0.1244391363,0.1218317259,0.1196186358,0.1180596466,0.1166740022,0.114933027,0.1127816312,0.1102400322,0.1077177228,0.1049706863,0.1023504249,0.09956729714,0.09694001147,0.09420108706,0.09159436352,0.08867308884,0.08584973956,0.08316205051,0.08022904926,0.07714477843,0.07433304868,0.07210543922,0.06936923158,0.06695397246,0.06467650785,0.06243432696,0.06018851481,0.05840448858,0.0569075492,0.05568728564,0.05420591984,0.05329722463,0.05224274984
0.4494397242,0.4525152389,0.4533300466,0.4543858261,0.455319114,0.4561780617,0.4570590611,0.457848995,0.4584859338,0.4590427484,0.4595823793,0.4601735829,0.4605777852,0.4609075007,0.4611080569,0.4612316236,0.4613674453,0.461291178,0.4611559428,0.4609162024,0.4604549647,0.459974118,0.4593870187,0.4586550572,0.4578453644,0.4564713136,0.4543514054,0.4511171074,0.446670216,0.4412363035,0.435783418,0.4310642868,0.4275705131,0.4251290437,0.4234662358,0.4221977549,0.4210400808,0.4198331524,0.4187714947,0.4180249643,0.4176299331,0.4175828478,0.4179087967,0.4186622606,0.4199532896,0.4214762567,0.4229947101,0.4243175216,0.4254676993,0.4264757209,0.4273384745,0.4280272632,0.4285794765,0.4289386209,0.4289896853,0.4288949084,0.4286094184,0.4281552038,0.4272846941,0.4261051363,0.4245019791,0.4223741926,0.4195856895,0.4160834195,0.4118873189,0.4068894522,0.4012512135,0.3951749431,0.3888763017,0.3826893971,0.3768233145,0.3713172686,0.3657626731,0.3595109529,0.3516456212,0.3408406935,0.3255145159,0.3043334992,0.2777365537,0.2485937519,0.2198609347,0.194628081,0.1741199217,0.1585518557,0.1471247451,0.1387622885,0.1327445869,0.1285207632,0.1257210517,0.1240378289,0.1231655391,0.1229582497,0.1234473691,0.1249489092,0.1275601623,0.1312350151,0.1357274631,0.1408278619,0.1463875059,0.152207091,0.1582887425,0.1645027987,0.1707480069,0.1770347931,0.1832134525,0.1893389994,0.1952863194,0.2010240223,0.2066219561,0.2119817625,0.2172032931,0.2222345924,0.2269688771,0.2314408063,0.2356519818,0.2397721078,0.2437356981,0.2475788598,0.2513052259,0.2549656805,0.2584609823,0.2618704661,0.2650701411,0.2680793276,0.2709075005,0.2734339308,0.2757650955,0.2778352687,0.2795284548,0.2807837858,0.2815463552,0.2818385174,0.2818303784,0.2816684473,0.2814185299,0.2809770765,0.2800573019,0.2785552476,0.2765943303,0.2743994814,0.272031502,0.2695712662,0.2668100799,0.2640073595,0.2612565832,0.2586929053,0.2566274124,0.2555757257,0.254776957,0.2532818798,0.2508792436,0.2480256618,0.2450495143,0.2425444931,0.2407495603,0.2394535462,0.2384936298,0.2379424092,0.2377347794,0.2379670519,0.238485195,0.2401168426,0.2408628119,0.2415920951,0.2420874703,0.2424272783,0.2424334413,0.2416848571,0.2400413127,0.2370148418,0.2320589614,0.2244885985,0.2135907409,0.1989626162,0.1798780869,0.1565073122,0.130809927,0.1049977238,0.08177717811,0.06322287427,0.05035780013,0.04225962658,0.03755466675,0.03481005632,0.0332081559,0.03234981502,0.03197853493,0.03199821608,0.03234865404,0.03295664781,0.0337985416,0.0349064151,0.03618035117,0.037606118,0.03923394573,0.04110066024,0.0431385988,0.04530928288,0.0476491592,0.05011078269,0.05267607756,0.0552641718,0.05798354119,0.06067992145,0.06330559564,0.06588567984,0.0683338629,0.07070382909,0.07284862483,0.07491229956,0.07690442654,0.07891570115,0.08101805617,0.08316225371,0.08545891595,0.08771433351,0.0899818342,0.09223035448,0.09440955283,0.09658133424,0.09865986603,0.1007640878,0.1027828602,0.104737812,0.1066430662,0.1084137529,0.1101517869,0.1117798869,0.1133518504,0.1150057351,0.1167190356,0.1183613175,0.1198937076,0.1212969011,0.1227654195,0.1242752438,0.1258887231,0.1275430901,0.1292194064,0.130826351,0.1322532819,0.1335643307,0.1346811192,0.1354772961,0.1358321178,0.1356798485,0.1346463093,0.1327987071,0.1303033364,0.1271887842,0.1238006097,0.1204038853,0.1170225147,0.1138344457,0.1109764021,0.1086107791,0.1064881332,0.104646568,0.102531874,0.1000130161,0.09709767733,0.09394323451,0.09109301767,0.08949741432,0.08941976572,0.08893678489,0.08744500904,0.08548513824,0.08344948642,0.08122382739,0.07923810587,0.07774258645,0.07681675554,0.07549682992,0.07394758922,0.07224297101,0.07044427692,0.06849924132,0.06678365572,0.06489353058,0.06324190226,0.06142780876,0.05938522096,0.05770066672,0.0558171965,0.05394296036,0.05205187709,0.05036086742,0.04844908012,0.04692032819,0.04513809179,0.0435738702,0.04209764334,0.04065581758,0.03955487607,0.03834106461,0.03744639179,0.03664083812,0.03600556512,0.03511322172,0.03503105478
0.474772298,0.477002278,0.478708688,0.480364022,0.482088102,0.483844911,0.48560238,0.487170614,0.488479412,0.489758768,0.490618465,0.491428957,0.492046938,0.49242727,0.492600622,0.492648092,0.492636333,0.492300093,0.491835351,0.491084465,0.490293919,0.489279761,0.488176507,0.486791122,0.48499255,0.482491161,0.47823486,0.471585486,0.462280734,0.451326548,0.4407835,0.432215611,0.425917351,0.421595066,0.418349533,0.415547401,0.412697158,0.409912408,0.407674722,0.406488467,0.406389793,0.40718745,0.408741875,0.411003246,0.413956801,0.417143583,0.420194524,0.422764768,0.424947212,0.42686288,0.42846125,0.429783923,0.430751452,0.431390275,0.431553847,0.431313711,0.430637011,0.429485163,0.427710884,0.42528747,0.422157308,0.418128536,0.413187177,0.407137544,0.400077758,0.391900582,0.382945494,0.373538479,0.364006967,0.354803524,0.346096105,0.337856592,0.329612614,0.320509068,0.309274604,0.294320609,0.274355396,0.24884011,0.219565592,0.190277549,0.164018972,0.142989343,0.127236672,0.116066577,0.108238055,0.102710116,0.098825883,0.096116121,0.094340185,0.09326694,0.092738262,0.092694773,0.093138231,0.094268912,0.096259726,0.098990338,0.102357605,0.106176631,0.110383728,0.114927395,0.119723697,0.124730643,0.129908079,0.135221986,0.140553008,0.145996012,0.151420276,0.156754511,0.162062236,0.167254985,0.172416063,0.177397238,0.182191147,0.186791689,0.191177694,0.195421289,0.199526841,0.203482203,0.207355277,0.21103118,0.214561584,0.217970283,0.221153393,0.224098462,0.226780552,0.229116502,0.231139067,0.233126515,0.235058101,0.236715949,0.237836472,0.23844379,0.238531442,0.238105521,0.237102959,0.235147918,0.231960582,0.227875265,0.223287161,0.21858937,0.214205919,0.21040238,0.207243288,0.204860848,0.203017386,0.201314114,0.200002655,0.199234782,0.198320018,0.196295,0.193500282,0.190769347,0.188599611,0.18703296,0.185977529,0.185254924,0.184713679,0.18448508,0.184498979,0.184849464,0.185356847,0.186007622,0.186731387,0.187272943,0.187587206,0.187643683,0.187225408,0.186150834,0.184152735,0.180906032,0.175910087,0.168583045,0.158524068,0.145686006,0.129948237,0.112105907,0.093963923,0.077117901,0.062947692,0.052230195,0.045052143,0.040583628,0.038006,0.036443277,0.03554684,0.035119472,0.034915737,0.034901018,0.035076895,0.035475563,0.036027348,0.03668407,0.037483444,0.038363326,0.039321646,0.040409471,0.041585029,0.042855604,0.044245283,0.045696951,0.047183897,0.048744701,0.050364896,0.051961773,0.053534738,0.055113705,0.056718042,0.058235124,0.059713721,0.061160442,0.06258936,0.064040945,0.065597384,0.067253102,0.068987727,0.070727131,0.0724771,0.07422965,0.075941888,0.077613118,0.079244592,0.080828573,0.082405955,0.083898059,0.085377599,0.086749178,0.088049143,0.08925918,0.090320693,0.091378315,0.09244629,0.093502066,0.094402316,0.095215099,0.096023837,0.096931878,0.09790793,0.098847635,0.099779182,0.100623717,0.101303356,0.101808844,0.102226285,0.102335629,0.102195112,0.10177699,0.100930168,0.099660726,0.097792254,0.095594102,0.093093472,0.090350733,0.087506185,0.084717131,0.082190738,0.08014782,0.078479856,0.076589428,0.074401127,0.072009537,0.069727973,0.068130257,0.06731848,0.06727377,0.067531443,0.0673172,0.066512084,0.065316993,0.063723818,0.062253074,0.061034033,0.060531602,0.059787065,0.059189533,0.058272054,0.057628004,0.056550672,0.055609312,0.054684714,0.05358719,0.05287656,0.051756638,0.050853829,0.050045499,0.048861834,0.048018597,0.047242964,0.046330581,0.045430018,0.044349683,0.043713426,0.042923109,0.041997834,0.041180493,0.040407358,0.040072074,0.039368676,0.039464858,0.038811538,0.038443719,0.038169274
0.4811489937,0.484413445,0.4855907212,0.4869644452,0.488112463,0.4894945141,0.4906869116,0.4915709579,0.4925186805,0.4932005776,0.493904578,0.4946044758,0.4951493104,0.4956953791,0.4960478907,0.4962771019,0.4963327233,0.4962743893,0.4960843994,0.4955552413,0.4949328463,0.4942662807,0.4933081773,0.492448439,0.4910528556,0.4890398073,0.4859219882,0.4815442433,0.4753325124,0.4682784686,0.4614140831,0.4558232928,0.451606366,0.4487791407,0.4469427102,0.4456336692,0.4443334423,0.4429963983,0.4417853129,0.4409693414,0.4405496343,0.4407104783,0.4412181112,0.4422180831,0.443561261,0.4450795685,0.446529886,0.4477463448,0.4489403707,0.450062168,0.4509039339,0.451600248,0.4520929885,0.4523240278,0.4524124099,0.4520483749,0.4515365557,0.4507699751,0.4497111769,0.4481392421,0.4459758586,0.4432009684,0.4397367005,0.4353554404,0.4300454766,0.4239042869,0.4170411677,0.409738968,0.4022453453,0.3951145378,0.3883586767,0.3820787103,0.3756188855,0.3682590666,0.3588310047,0.3459494301,0.3279477994,0.3037101724,0.2742521861,0.242970736,0.2131465832,0.187739077,0.1676499147,0.1527931543,0.1421421163,0.1344815474,0.1290924457,0.125413386,0.1230611429,0.1216852466,0.1210941652,0.1211117152,0.1217818169,0.1233074398,0.1258864317,0.1294945775,0.1339041304,0.1388742645,0.1443058523,0.1500412962,0.1560241549,0.1621222602,0.1684006746,0.1747334559,0.1810049624,0.1871957269,0.1933236828,0.1993179315,0.2051687924,0.2108059218,0.2162912024,0.2215227548,0.2265748364,0.2313019185,0.2358050697,0.2401520441,0.2443873142,0.2483206664,0.2521210505,0.2558575921,0.2594095903,0.2627500938,0.2658674937,0.268807656,0.2715491279,0.2740175061,0.2762574078,0.2781332855,0.2799170207,0.2812176049,0.2819233244,0.2820989011,0.2816912868,0.2812592637,0.2810668097,0.2810071156,0.2807489267,0.2799286512,0.2785828931,0.2768759626,0.2747749083,0.2723918258,0.2696856615,0.2670397223,0.264630365,0.2622342297,0.2601892527,0.2586988381,0.2572276442,0.2551209593,0.2522350715,0.2490600116,0.2460886961,0.2434008027,0.2412992352,0.239706045,0.2384021457,0.2376163563,0.2372916731,0.2373964647,0.237782168,0.2425770298,0.2432508464,0.243907041,0.2442930245,0.2443743047,0.2439770671,0.2428322731,0.2406151082,0.2368202605,0.2311229079,0.2227757459,0.2110611357,0.1956527339,0.1759287394,0.1523996465,0.1275518162,0.103851789,0.08367075432,0.06848626392,0.05850298505,0.05243200405,0.04897403243,0.04704459034,0.04600873793,0.04543744235,0.04523207233,0.04518648861,0.04538250311,0.04576575146,0.04648560396,0.04743699784,0.04849239156,0.0496567161,0.05091305714,0.05226797949,0.05381357135,0.05565536685,0.0576160769,0.05966404617,0.06173197406,0.06384071633,0.06607836293,0.06844529659,0.07078749801,0.07315251788,0.075528774,0.07772956232,0.07970524298,0.08171959926,0.08382105682,0.08592842567,0.08818364765,0.09052249417,0.09288755918,0.09519760745,0.09738211927,0.09964702459,0.1017996058,0.1039603891,0.1061146346,0.1081997587,0.1102667632,0.1121873932,0.1139025083,0.1154794979,0.1169822821,0.1184207758,0.1197408537,0.1211648137,0.1226846922,0.1243286306,0.1259187998,0.1274449361,0.1289571102,0.1305252813,0.1321280485,0.133757699,0.1352359076,0.1365976292,0.1378640177,0.1389944172,0.1400701964,0.1409264841,0.1415999463,0.1417700189,0.1413221902,0.1402589774,0.1385838433,0.136347945,0.1336627846,0.1309209336,0.1280378687,0.1251796888,0.1225041248,0.1201654024,0.1180995822,0.1160441643,0.1137421507,0.1111432562,0.1083104196,0.1053561116,0.1031526325,0.1020199111,0.1012454109,0.09999768039,0.09812389616,0.09604108433,0.09383482199,0.09147258929,0.0895003582,0.08799502795,0.08671915894,0.08521147887,0.08367967443,0.08169638694,0.07990148045,0.07806566554,0.0765212012,0.0746789237,0.07315262092,0.071494751,0.06981157726,0.06815918605,0.0664301785,0.06473222196,0.06330829569,0.06158127569,0.05988383093,0.058333174,0.05678912855,0.05524113157,0.05378710545,0.05282232464,0.05109341028,0.05053425702,0.04933401344,0.04832778734,0.04791469212,0.04747309402,0.04644037916
0.4336826701,0.4362712638,0.4375802769,0.4386789368,0.4398658302,0.4411093374,0.4420862744,0.4430981292,0.4439564869,0.4447912696,0.4453180241,0.4459078408,0.4462246368,0.4465571541,0.4466732048,0.4465938007,0.4464947841,0.446312111,0.4459282131,0.4453481045,0.4447656813,0.44412833,0.4433569778,0.442473992,0.441348175,0.4395657232,0.4366556251,0.4321127084,0.4258300934,0.4185972056,0.4116870391,0.4061434498,0.4022588834,0.3996717252,0.3977854351,0.3961233187,0.394446482,0.3928001485,0.3916072435,0.391018265,0.3911249836,0.3916732807,0.3927485286,0.3941376833,0.3958121664,0.3976271365,0.3992325031,0.4006147449,0.401858101,0.402953308,0.4038734979,0.4046162506,0.4051848489,0.4055573258,0.405581577,0.4053680854,0.4047815184,0.4037790559,0.4023498776,0.4004787098,0.3979893165,0.3948675798,0.39107789,0.3864166352,0.3809338757,0.3746272452,0.3676312838,0.3602381319,0.3527453966,0.3454469327,0.3386218131,0.3320944003,0.3254571067,0.3178222924,0.3077934509,0.294132734,0.2752712569,0.2502672367,0.2208034072,0.1906156084,0.162920266,0.1405391926,0.1237581096,0.1119484206,0.1037554869,0.09796632641,0.09392320684,0.09117464939,0.08940423004,0.08840588512,0.08794310693,0.08799127242,0.0886057032,0.09003933128,0.09237769739,0.09557355905,0.09948385021,0.1039103709,0.1088096641,0.1140568376,0.1196471392,0.125433238,0.1314064605,0.1374888967,0.1436394779,0.1498071396,0.155950713,0.1619707885,0.1678761372,0.1736670599,0.17932942,0.1848166359,0.1900225182,0.1950441241,0.1998604618,0.2044562424,0.208856288,0.2130333004,0.2170180689,0.2208494895,0.2244471376,0.2278257205,0.2310212039,0.2340048696,0.2366504848,0.2390564174,0.2412319832,0.243303054,0.245176157,0.2467940243,0.247924888,0.248507816,0.2485962283,0.2482762761,0.2475129428,0.2461172615,0.2440443359,0.2414111835,0.2384508312,0.2352702661,0.2322162424,0.2294714819,0.2270823133,0.2250453421,0.223071014,0.221064671,0.2191514364,0.2171806521,0.2149375524,0.2120157746,0.208721333,0.2056102358,0.2030276896,0.2009259626,0.199238292,0.1977972898,0.1966160017,0.1957856156,0.1953828489,0.1953807682,0.1956888634,0.1972659419,0.1978313038,0.1983455491,0.1985877154,0.1985102999,0.1978889702,0.1965473584,0.194110313,0.1901556685,0.1842460114,0.1757362965,0.164131838,0.1493128007,0.1310957572,0.1102969045,0.08954499628,0.07100177678,0.05623110041,0.04569379969,0.03913043651,0.03529918536,0.03307515977,0.03181549623,0.03106097637,0.03063384216,0.03045536507,0.03045335476,0.03061939678,0.03098382014,0.03145212093,0.03203134614,0.03270494638,0.03346256508,0.03434379608,0.03531470636,0.03638633064,0.03748230699,0.03874146925,0.04007064504,0.0414906789,0.0429832795,0.04454492674,0.04611433618,0.04775059516,0.04941153931,0.05108039102,0.05276224036,0.05444619786,0.056135541,0.05784322265,0.05958833446,0.06141127555,0.06335496584,0.06529307716,0.06732299963,0.06933686555,0.07144374956,0.0734938252,0.07555965006,0.07758024681,0.07962431749,0.08158936852,0.08354741968,0.08542658688,0.08720380307,0.08893126029,0.09053951686,0.09204385883,0.09350054056,0.09491326081,0.09632430818,0.09769886243,0.09898002767,0.100141368,0.1013363564,0.1024821515,0.1035524531,0.1045969363,0.1055165699,0.1062887426,0.1068417204,0.1071864289,0.107348797,0.1072903532,0.1069742492,0.1062378043,0.1050492124,0.1032837937,0.1010617799,0.0984503851,0.09541759683,0.09234600902,0.08940511187,0.08672717101,0.08432898306,0.08236871028,0.08015004171,0.07767602714,0.07494869925,0.07253755126,0.07090091035,0.07018139419,0.06987715964,0.06952827398,0.06871315146,0.06746284547,0.06582717904,0.06403716499,0.06219351315,0.06085313293,0.05997094053,0.05901611876,0.0578539528,0.05672854775,0.05562497651,0.05445031503,0.05328575612,0.05215375725,0.05105528835,0.04986472475,0.0486860495,0.04756484081,0.04658539258,0.04577767273,0.04467409101,0.04379234973,0.04292873912,0.04185981518,0.04108371076,0.04019433229,0.03903336826,0.03811594639,0.03761098215,0.03709717019,0.03630297609,0.03605104319,0.03527503521,0.03506363702,0.03530241266,0.03482315529
0.504895143,0.5080451061,0.5090594465,0.5101766641,0.510948924,0.5120812892,0.5130426095,0.5138156409,0.5146003565,0.5152371594,0.5160028077,0.5165147924,0.5171868056,0.5176229733,0.5178569086,0.5181247535,0.5183045005,0.5183130414,0.5181537909,0.5179324188,0.5175645204,0.5172059859,0.5166856864,0.5160959239,0.5151970207,0.5138368554,0.5118090554,0.508614368,0.5042185236,0.4990501429,0.4935780735,0.4888582348,0.4853780434,0.4830010051,0.4815521899,0.4804222837,0.4795089357,0.4784055935,0.477681071,0.4773218301,0.4772806449,0.477658637,0.4783045728,0.4791991369,0.4803805391,0.4815739827,0.482627632,0.4836655425,0.4846798948,0.4855385621,0.4863067226,0.4869889448,0.4873926142,0.4877457598,0.4877377134,0.4875503941,0.4872820966,0.4868844581,0.4862132563,0.4852394704,0.4836761455,0.4815823163,0.4788803981,0.4754549261,0.4712888104,0.4663356662,0.4607744188,0.4547645023,0.4483716913,0.4421064111,0.4362818741,0.430819754,0.4253614887,0.419236076,0.4112854886,0.4003349893,0.3848291453,0.3631540866,0.335482603,0.3043784541,0.2728814162,0.2442293421,0.2204988766,0.2023138447,0.1891482543,0.1797052831,0.1731696153,0.1688535443,0.1661440449,0.1646347339,0.1639362054,0.1638792019,0.1645866788,0.1663166928,0.1693051667,0.1734879867,0.1786464778,0.1844565315,0.1906833405,0.1971076815,0.2037468454,0.2103683646,0.2169918466,0.2235933202,0.2299944469,0.2362972695,0.2423428197,0.2481639333,0.2537486603,0.2590932295,0.2642983147,0.2692139623,0.273819064,0.2782017027,0.2822996961,0.2863572959,0.2903264766,0.2940831177,0.2978168268,0.3014090556,0.3048174553,0.3081713222,0.3113315902,0.3143088536,0.3170720861,0.3196071753,0.3219401125,0.3240114152,0.3257552753,0.327057375,0.3277620514,0.3277589985,0.3275093227,0.3272801965,0.3273351617,0.3272904104,0.3267348708,0.3254613151,0.3237445006,0.3217165743,0.3196421443,0.3174077402,0.3151233734,0.3129977706,0.3108743824,0.3089390494,0.3069183862,0.3050938123,0.3031214329,0.3008799618,0.2985772202,0.2960029502,0.2934242549,0.2910646995,0.2891125808,0.2876003227,0.2864624364,0.2856779423,0.2851908779,0.2853466861,0.2857673031,0.2878495501,0.288826865,0.2897513099,0.290690303,0.2911809943,0.2913186281,0.2908547877,0.2893314063,0.2862651272,0.2812710943,0.2735698692,0.2622565399,0.247002463,0.2265870649,0.2008518765,0.1719808957,0.1424368156,0.1150336137,0.09236823809,0.07625611999,0.06593010838,0.05981400626,0.05637351734,0.05447250437,0.05347662849,0.05311973552,0.05324970524,0.05381609239,0.05478653536,0.05614743695,0.05781409303,0.05964540364,0.06174522988,0.06401026888,0.06660441571,0.06939166525,0.07244323229,0.07567437776,0.07897455374,0.08238915088,0.08585206474,0.08928511111,0.09268913716,0.09597089969,0.09906476701,0.1018563511,0.104334383,0.1066376916,0.1087099889,0.1107017918,0.1127659639,0.1149755268,0.1172624456,0.1196219266,0.1218511199,0.1240171671,0.1261016082,0.1280205827,0.1299680938,0.1317185688,0.1334802157,0.1351874818,0.1366337778,0.1380110744,0.1392220974,0.1404057633,0.1413788174,0.1422181789,0.1433468749,0.1444453541,0.145724695,0.1469898894,0.1482160965,0.1495526774,0.1510867991,0.1527763032,0.1546083792,0.1565658319,0.1585911391,0.1606446578,0.1625049058,0.1644554449,0.1660712724,0.1672662684,0.1679513395,0.1678160312,0.1669551857,0.1651932647,0.1629618063,0.1602207537,0.157184046,0.1542130457,0.1513619878,0.1485379928,0.145823382,0.1432528284,0.1409645182,0.1389119296,0.1366123133,0.1341800387,0.1316054165,0.1293120764,0.1276327277,0.1265198428,0.1248779162,0.1230291506,0.1208491094,0.1186919456,0.1163409011,0.1146339155,0.1131754184,0.112100389,0.1103882185,0.1086982765,0.1067776844,0.104870443,0.1027805698,0.1006203532,0.09813626446,0.09574628596,0.09343341444,0.09094071583,0.08835135367,0.08548243501,0.08291125559,0.08032345647,0.07776925614,0.07538387065,0.07301873067,0.07093487493,0.06881229234,0.06669683854,0.06438915017,0.06277930508,0.06122439583,0.05974407106,0.05911090069,0.05810349668,0.05768149706,0.05595798694
0.5747650874,0.5782877817,0.5799354579,0.5817233041,0.5834290186,0.5851809646,0.5867846041,0.5882629224,0.589719784,0.5907884477,0.5919132983,0.5930668927,0.5938867229,0.594491125,0.5949472955,0.5951571167,0.5951365272,0.5949980418,0.5946690559,0.5939834361,0.5932987296,0.5922979068,0.5912468694,0.5899500529,0.5879639184,0.5852336816,0.5810809094,0.5749230423,0.5669428275,0.5576176598,0.5480207726,0.5393680007,0.53239379,0.5272058608,0.5231296207,0.5198551702,0.5168074362,0.5139594158,0.5116154962,0.5099344427,0.5089946475,0.5091479853,0.5104360562,0.5124897632,0.515156257,0.5180080312,0.5206465424,0.5229312735,0.5249609407,0.5266884016,0.5281882407,0.5293877884,0.5303360798,0.531024814,0.5314152091,0.5315339867,0.5312094631,0.5305057971,0.5292029149,0.527231065,0.5244783563,0.5208590179,0.5161991662,0.5104808543,0.5035562154,0.4954839729,0.4863379811,0.4764907752,0.4663506057,0.4565755922,0.4473885885,0.4387710056,0.430341844,0.4211224451,0.4099393848,0.3952266331,0.3749711258,0.3476461741,0.3142836347,0.2783889202,0.2432971319,0.2126500469,0.1877212352,0.168664394,0.1545255018,0.1440764935,0.1364110519,0.1309180885,0.1271810205,0.1247930462,0.1233835638,0.1227835515,0.1229129959,0.1239831427,0.1261378573,0.1293655204,0.1335234028,0.1383447347,0.1436409065,0.1492709802,0.1552012212,0.1612616718,0.16737422,0.1735531412,0.1796951874,0.1857648709,0.1917359447,0.1974662341,0.2030564921,0.2084284614,0.2135751176,0.2185552479,0.2232490448,0.2277965378,0.2321930856,0.2364901216,0.2406879617,0.2447654109,0.2487908159,0.2527447119,0.2566854573,0.2604723043,0.264104464,0.2675239261,0.2707602747,0.2736839192,0.276365264,0.2787223045,0.2808128639,0.2824921584,0.2833739376,0.2833287361,0.2825653376,0.2816570704,0.2808294942,0.2799820203,0.2786672042,0.2766236258,0.2738628867,0.2706861218,0.267517193,0.2640877215,0.260383514,0.2570385984,0.2545505365,0.25266762,0.2512251977,0.249836276,0.2481643712,0.2459513193,0.2435071348,0.2411672762,0.2392486891,0.2377207978,0.2366189919,0.2356287006,0.2349978354,0.2350228513,0.23565895,0.2366247769,0.2378459703,0.2394708704,0.2407394433,0.2419462916,0.2429734102,0.243705782,0.2440450668,0.2437120265,0.242524701,0.2398795646,0.2352996823,0.2280861199,0.2175302343,0.2031746285,0.1843750796,0.1613620916,0.1359981244,0.1105435831,0.08738322199,0.06860361917,0.05544145088,0.04710521342,0.04222602179,0.03940730483,0.03780980984,0.03692186922,0.03648848948,0.03638418023,0.03660788344,0.0370632571,0.03769107565,0.038542219,0.03955306918,0.04076031439,0.04215706426,0.04367467736,0.0453780203,0.04720246419,0.04914532491,0.0512253082,0.05332030463,0.05551903289,0.05778524411,0.06005809825,0.06228367451,0.06440115847,0.0663931801,0.06825394512,0.06998676504,0.07161512733,0.07311685709,0.07461583033,0.0761465171,0.07768729192,0.0793033446,0.08089611627,0.0824986923,0.084081916,0.08563221889,0.08718127673,0.08866570139,0.09018790173,0.0917166792,0.09310915022,0.09448121884,0.09584549837,0.09709144691,0.09839196912,0.09966699037,0.1011033371,0.1026676108,0.1044352389,0.106303681,0.1081772214,0.1101942326,0.1121289565,0.1141194384,0.1161412494,0.1181763548,0.1201811402,0.122035431,0.1236833818,0.1251778987,0.1263931572,0.1273075911,0.1277136319,0.1275165643,0.1264685027,0.1245739053,0.1217934033,0.1185166273,0.1146603677,0.1107141014,0.1068856864,0.1031203436,0.09989341184,0.09688949202,0.09435630655,0.09189738646,0.08942642597,0.08703598825,0.08505145549,0.08396432166,0.08368738062,0.08332784096,0.08245538001,0.08094025373,0.07930591401,0.077518035,0.07574428585,0.07443322977,0.07359794709,0.0725742132,0.07149217765,0.07032876066,0.06910237463,0.06787761432,0.06636223529,0.06494658898,0.06340208996,0.06197132391,0.06032949495,0.05893715131,0.05751017261,0.05591612382,0.05451545272,0.05308678243,0.05139985929,0.04991861913,0.0485501257,0.04703989827,0.0456884248,0.04468516265,0.04363952059,0.04253632394,0.0421445657,0.04132699089,0.04078311814,0.04004573169,0.03981338047,0.03996344801
