1000,1005,1010,1015,1020,1025,1030,1035,1040,1045,1050,1055,1060,1065,1070,1075,1080,1085,1090,1095,1100,1105,1110,1115,1120,1125,1130,1135,1140,1145,1150,1155,1160,1165,1170,1175,1180,1185,1190,1195,1200,1205,1210,1215,1220,1225,1230,1235,1240,1245,1250,1255,1260,1265,1270,1275,1280,1285,1290,1295,1300,1305,1310,1315,1320,1325,1330,1335,1340,1345,1350,1355,1360,1365,1370,1375,1380,1385,1390,1395,1400,1405,1410,1415,1420,1425,1430,1435,1440,1445,1450,1455,1460,1465,1470,1475,1480,1485,1490,1495,1500,1505,1510,1515,1520,1525,1530,1535,1540,1545,1550,1555,1560,1565,1570,1575,1580,1585,1590,1595,1600,1605,1610,1615,1620,1625,1630,1635,1640,1645,1650,1655,1660,1665,1670,1675,1680,1685,1690,1695,1700,1705,1710,1715,1720,1725,1730,1735,1740,1745,1750,1755,1760,1765,1770,1775,1780,1785,1790,1795,1800,1805,1810,1815,1820,1825,1830,1835,1840,1845,1850,1855,1860,1865,1870,1875,1880,1885,1890,1895,1900,1905,1910,1915,1920,1925,1930,1935,1940,1945,1950,1955,1960,1965,1970,1975,1980,1985,1990,1995,2000,2005,2010,2015,2020,2025,2030,2035,2040,2045,2050,2055,2060,2065,2070,2075,2080,2085,2090,2095,2100,2105,2110,2115,2120,2125,2130,2135,2140,2145,2150,2155,2160,2165,2170,2175,2180,2185,2190,2195,2200,2205,2210,2215,2220,2225,2230,2235,2240,2245,2250,2255,2260,2265,2270,2275,2280,2285,2290,2295,2300,2305,2310,2315,2320,2325,2330,2335,2340,2345,2350,2355,2360,2365,2370,2375,2380,2385,2390,2395,2400,2405,2410,2415,2420,2425,2430,2435,2440,2445,2450,2455,2460,2465,2470,2475,2480,2485,2490,2495,2500
0.06648248,0.09247778,0.07981620,0.10051919,0.10317167,0.10162368,0.09323622,0.10028601,0.09779006,0.10124963,0.07577936,0.07085053,0.06927224,0.07515355,0.06435365,0.05650581,0.06375676,0.06630649,0.06194050,0.05680814,0.06155879,0.05901661,0.06743406,0.07067983,0.08024621,0.09165664,0.10228152,0.10878149,0.11164547,0.10762710,0.10199017,0.08831324,0.10196714,0.09266096,0.09556016,0.10774622,0.14069472,0.15413166,0.19049065,0.21116676,0.23047673,0.23559062,0.22852192,0.23947459,0.22750275,0.19131103,0.16946144,0.13512276,0.12478228,0.09654001,0.08941965,0.09371442,0.07046588,0.07529652,0.05735997,0.06372674,0.06584820,0.06466033,0.06402017,0.05897766,0.06215407,0.06899108,0.05771402,0.06000962,0.06096345,0.05300497,0.05626333,0.05307642,0.06528200,0.05558192,0.07192059,0.07291055,0.08500001,0.10632776,0.12521031,0.16430494,0.18535569,0.21784317,0.20674109,0.19044791,0.18495938,0.17345250,0.14538930,0.12918268,0.13573745,0.12734839,0.13831100,0.15963314,0.16577877,0.18092020,0.20294823,0.23601777,0.23724669,0.25975973,0.27855181,0.29793379,0.30432719,0.34218064,0.35119558,0.37567316,0.38368315,0.36425726,0.35620089,0.34366474,0.29083209,0.25367332,0.22302288,0.17512389,0.15221378,0.12266058,0.11403090,0.10389328,0.09193847,0.11005373,0.08884615,0.09004846,0.10402010,0.10394406,0.10845487,0.09119076,0.09064879,0.08963165,0.07947968,0.07184156,0.08285934,0.08513047,0.09348599,0.11516604,0.10920932,0.14342463,0.17189699,0.19556718,0.21960966,0.23963226,0.27717487,0.30248713,0.32314010,0.33531521,0.36210676,0.38991661,0.39624323,0.42275413,0.40503769,0.40563468,0.39464980,0.38294698,0.33648958,0.31153063,0.27774814,0.24278280,0.22736278,0.21185351,0.19663443,0.20535714,0.18891898,0.18036525,0.16589517,0.15542224,0.13700807,0.13750459,0.11223463,0.09142215,0.08682055,0.07156501,0.07338595,0.06254326,0.07714521,0.06513492,0.07090825,0.06228316,0.06414627,0.05907996,0.06208770,0.06491520,0.07518018,0.07956335,0.08032837,0.07116250,0.07054713,0.07476455,0.08455532,0.09852690,0.09332437,0.09663237,0.10732763,0.12562332,0.12251227,0.12370754,0.13174005,0.11359658,0.11793676,0.10551421,0.12088003,0.11092914,0.09885632,0.09460589,0.10628187,0.12223543,0.12405926,0.13291330,0.15763119,0.18191714,0.19809967,0.23235007,0.23810330,0.26972003,0.30672064,0.32725841,0.37074812,0.38003073,0.40048909,0.40890521,0.41532364,0.44649582,0.41906280,0.42256176,0.41710867,0.38673506,0.38709463,0.35909353,0.34239256,0.33027931,0.27910014,0.27355641,0.25184558,0.21779007,0.20691171,0.20566804,0.20804225,0.20302935,0.22358811,0.23448863,0.24682263,0.27268979,0.26762637,0.27385258,0.27531503,0.27644240,0.24537280,0.22517144,0.21801856,0.18597082,0.16862706,0.14029976,0.14283703,0.12915414,0.12370480,0.12571125,0.13494978,0.15326278,0.18301343,0.20899510,0.24551930,0.28037672,0.33330820,0.36524220,0.41553560,0.45815875,0.48797829,0.49527360,0.51858647,0.51695027,0.54376362,0.52763293,0.47832595,0.48517700,0.44436366,0.43532288,0.40427778,0.40500997,0.39249050,0.32910080,0.29322379,0.24453320,0.19072636,0.17303014,0.13025629,0.09549717,0.08432291,0.07114842,0.07144087,0.07087878,0.06089547,0.06456980,0.06151017,0.05547856,0.06900512,0.06515182,0.06894901,0.06569239,0.07383059,0.07055143,0.06964690,0.08520025,0.07762063,0.06898750,0.07445055,0.06894234,0.07030652,0.07401413,0.07040698
0.01858274,0.00654270,0.00983957,0.01911775,0.02321658,0.02315199,0.02796818,0.01852947,0.02825297,0.01512729,0.01556847,0.01566355,0.00772557,0.00725190,0.00738553,-0.00163981,0.00683348,0.01566731,0.00642761,0.00955001,0.00943580,0.00054861,0.00642255,0.00824493,0.01686728,0.02623238,0.02488487,0.03630848,0.03640143,0.04514547,0.02962240,0.03660773,0.02742122,0.02326097,0.04215856,0.04786565,0.04109709,0.06027290,0.07938558,0.10479127,0.12648053,0.13512766,0.14688938,0.13791351,0.14571978,0.12909327,0.11763766,0.09903920,0.08146057,0.05665141,0.04200330,0.02833559,0.01984174,0.01806436,0.00777988,0.01388805,0.01092634,0.01150659,0.01344761,0.00491360,-0.00374484,0.00824559,0.01513400,0.01363515,0.00285502,0.00189687,0.00134058,-0.00614252,0.00735541,0.01276015,0.00752547,0.02368276,0.02406276,0.03609961,0.03508284,0.06285588,0.08050781,0.12416836,0.13212553,0.13255423,0.13138382,0.12620470,0.11643194,0.12337649,0.13577773,0.13199782,0.17290144,0.19268285,0.24008983,0.26197319,0.29825419,0.33330086,0.35505719,0.37813191,0.36381456,0.39516313,0.39786812,0.36680533,0.36672470,0.34210086,0.32350876,0.31991989,0.28198378,0.26827807,0.22210421,0.19140722,0.15179736,0.13570216,0.11989479,0.10138276,0.09479408,0.10176025,0.10575758,0.12586762,0.14066677,0.14154958,0.17132861,0.15795407,0.15245233,0.14212420,0.13840442,0.09587595,0.09455516,0.06971517,0.04949852,0.04656624,0.03515162,0.04514683,0.03822189,0.05197442,0.05633628,0.06019679,0.06714986,0.11153706,0.11468031,0.13794028,0.15955346,0.19044086,0.21040899,0.22265608,0.24361613,0.25933880,0.27367491,0.27162390,0.27130941,0.26913995,0.25021103,0.22992318,0.22876768,0.20321493,0.18531449,0.15728214,0.14248968,0.13373670,0.11615337,0.12198363,0.10345224,0.11161349,0.08899273,0.09071617,0.07074576,0.05439829,0.03830714,0.03749835,0.03598412,0.01835024,0.01295557,0.00691033,0.02085980,0.00627237,0.01914829,0.00537925,0.01224270,0.01214728,0.01141053,0.01537556,0.01609258,0.01944246,0.01831929,0.02785384,0.03734398,0.03712338,0.04791086,0.05485307,0.06932667,0.06371611,0.07606446,0.07646112,0.08372478,0.08167380,0.08132867,0.07846434,0.07514597,0.07419157,0.06656704,0.07528235,0.06071147,0.04624666,0.06465723,0.07011946,0.07477326,0.06926329,0.08841297,0.09792817,0.11842846,0.13581211,0.16057691,0.19722164,0.20858015,0.23733937,0.26188160,0.29397459,0.32983765,0.37183809,0.39615445,0.43215659,0.44584516,0.47252105,0.48618498,0.49230727,0.49737850,0.47559014,0.47269079,0.44093356,0.40466877,0.37774747,0.33869449,0.29324094,0.24605765,0.21573853,0.21482765,0.18785763,0.17427649,0.17785157,0.15565034,0.16396140,0.15373706,0.16066181,0.14631535,0.14369765,0.13522659,0.12429832,0.10662353,0.10032522,0.09075482,0.09965632,0.09834215,0.09108757,0.12737491,0.16865903,0.17671832,0.20479833,0.26131296,0.29927626,0.32546938,0.36760989,0.39526452,0.41236923,0.44027255,0.46642061,0.44858920,0.44859102,0.44503499,0.41794128,0.40499246,0.37908158,0.37221305,0.34546524,0.33119865,0.32154372,0.32560059,0.29263051,0.25422149,0.22874790,0.19422233,0.14338781,0.10677816,0.08458266,0.03808402,0.03593132,0.02659931,0.01589962,0.01775084,0.01227638,0.01317437,0.01192644,0.01323596,0.02484498,0.01070162,0.01268820,0.01952521,0.01349552,0.01512059,0.01494853,0.01217818,0.02109780,0.01623388,0.02419885,0.01726493,0.02261900,0.01904493
0.04696265,0.05908575,0.06602649,0.06988325,0.06531617,0.08154695,0.06503699,0.07411998,0.07508485,0.06386762,0.05978048,0.04930325,0.04717147,0.03976661,0.02827967,0.02865420,0.03709754,0.03246833,0.03102275,0.01667182,0.03016235,0.03165195,0.03913599,0.04545555,0.04836185,0.07015695,0.08492459,0.08162513,0.09420138,0.09135028,0.07117848,0.07589778,0.06375933,0.05397631,0.05725832,0.07587164,0.08712301,0.09619257,0.11350498,0.12495199,0.15864134,0.15855369,0.16763501,0.16185889,0.15779095,0.15116596,0.12308253,0.10697372,0.08022492,0.06763742,0.06925957,0.05883918,0.04729082,0.04301518,0.04536085,0.04290897,0.02639999,0.04493489,0.03152378,0.03340248,0.04093804,0.03856349,0.04929647,0.04013310,0.03128982,0.03902950,0.03525471,0.04772992,0.03901555,0.04115395,0.04124452,0.04870891,0.05727419,0.06948024,0.09088678,0.11274822,0.12653909,0.13356073,0.15633090,0.15662968,0.14907940,0.15047160,0.14799846,0.14790177,0.16101397,0.18228284,0.20898396,0.23538406,0.26340949,0.27124113,0.29717044,0.31797665,0.33129689,0.35242050,0.36739208,0.38036169,0.38509187,0.41061408,0.41528042,0.42473274,0.40742767,0.42160304,0.39059869,0.36083767,0.33076219,0.29058621,0.23293279,0.19966188,0.15926613,0.12095057,0.10904008,0.10717978,0.09830934,0.09164966,0.08380020,0.10314997,0.09338370,0.09128114,0.09032845,0.09082705,0.08242747,0.07547248,0.07312500,0.07154752,0.08252896,0.07337383,0.08322747,0.09802924,0.10641094,0.12669253,0.14478331,0.17414997,0.18983934,0.20547236,0.23746249,0.26716528,0.28784221,0.30934127,0.31443061,0.34310265,0.34280002,0.33148979,0.32505823,0.32523001,0.33302729,0.30419664,0.28217825,0.24738205,0.23652839,0.22643172,0.18453182,0.18832617,0.18788070,0.18732858,0.18154271,0.17457792,0.17169741,0.16948624,0.16214397,0.13853052,0.11437453,0.10543956,0.08419638,0.07949769,0.06954854,0.06717396,0.06293958,0.06765680,0.05743826,0.05762293,0.05982829,0.05977502,0.06360314,0.06563348,0.07689271,0.08501165,0.09265180,0.10440249,0.11161136,0.12098626,0.13228205,0.15619970,0.16755970,0.18390220,0.20811562,0.21134835,0.22549116,0.22401371,0.24757354,0.23630972,0.24498162,0.21786477,0.21549295,0.20876433,0.19810273,0.18692801,0.16479580,0.15751247,0.15436036,0.16168738,0.16124785,0.17892708,0.20647231,0.23118414,0.26160393,0.28594074,0.31082805,0.34620797,0.37447077,0.41145707,0.41567532,0.45245154,0.45882489,0.47844250,0.47809291,0.49982420,0.49433446,0.49458370,0.45755368,0.43835799,0.41189236,0.39227027,0.37253721,0.33778200,0.29372976,0.28214019,0.25395150,0.24313155,0.23123843,0.23801461,0.24378582,0.23195494,0.26001033,0.28647034,0.29601915,0.30994928,0.30627519,0.28789641,0.27536813,0.27193699,0.23985781,0.23226308,0.20659565,0.18361576,0.16581686,0.14456521,0.14511760,0.15921676,0.16547618,0.18197799,0.21212884,0.24012120,0.27468696,0.30319966,0.35359690,0.39611988,0.41359953,0.46522224,0.49533619,0.52268230,0.54137754,0.52548107,0.51649809,0.49469179,0.47046407,0.47070867,0.45823532,0.43099983,0.41213004,0.37246594,0.36698091,0.34414859,0.29682266,0.25885802,0.23784996,0.17805976,0.16051271,0.12454467,0.11617654,0.10116121,0.10197353,0.09779708,0.08963623,0.09558610,0.10655625,0.10724659,0.11101469,0.11354104,0.11567262,0.11829004,0.11167269,0.13274761,0.11843938,0.13957103,0.12581530,0.12485389,0.14179246,0.13606817,0.13180185,0.13241924,0.14838230
0.08608503,0.08802635,0.09061222,0.10011970,0.11673986,0.11851111,0.12906753,0.12207677,0.11322012,0.10848420,0.09044553,0.08477442,0.08857158,0.07623752,0.07003457,0.06103091,0.06968454,0.06949552,0.04809434,0.06554580,0.06742196,0.07341176,0.07111620,0.08182404,0.10058553,0.11351798,0.12436857,0.13715112,0.13665713,0.14867434,0.12378265,0.11580488,0.11118135,0.08172919,0.08797080,0.08834510,0.09072375,0.09916611,0.09507537,0.11327382,0.11927303,0.12635024,0.12453111,0.12034076,0.12154340,0.10487631,0.10320340,0.10181757,0.09093641,0.07908657,0.08238620,0.07186472,0.06335673,0.06960612,0.07599535,0.07158568,0.06553845,0.06519957,0.07368813,0.06504977,0.07323290,0.07315448,0.06721456,0.07936921,0.06716926,0.07506582,0.06851575,0.07762341,0.06713803,0.06801569,0.07731168,0.06730673,0.08312947,0.08847279,0.09346019,0.10002683,0.11132285,0.12511011,0.11729683,0.14041093,0.14013117,0.14881435,0.15337305,0.16455697,0.18886206,0.22037206,0.23182575,0.27067433,0.30208641,0.32372591,0.33412299,0.36933992,0.38484385,0.39489752,0.39171499,0.39882326,0.43720199,0.42371665,0.43534914,0.45253167,0.48085567,0.45975530,0.45091412,0.44376245,0.40857798,0.36990811,0.32540045,0.26091553,0.24183132,0.20647699,0.16638122,0.15906978,0.17212340,0.17285358,0.18218720,0.18411203,0.18965437,0.18994620,0.17128799,0.16329994,0.16421051,0.14891111,0.14236897,0.13150948,0.11508280,0.12549745,0.12242984,0.13067929,0.15122253,0.18658077,0.20353476,0.22748124,0.24732251,0.28061084,0.30954796,0.32196446,0.33166634,0.35077231,0.35969343,0.34609662,0.33226867,0.30195354,0.29148361,0.27234780,0.26019298,0.24554390,0.22544923,0.20136318,0.17599497,0.16499702,0.16638958,0.15252177,0.13736541,0.13919827,0.14138567,0.13156618,0.12277760,0.13310686,0.12871482,0.12624916,0.10918499,0.10931194,0.09380960,0.09733630,0.08247233,0.08804830,0.08664544,0.08627544,0.09687981,0.09061806,0.08793497,0.07931859,0.09935568,0.09440071,0.10970700,0.10463254,0.10760519,0.10766017,0.12879468,0.13327310,0.13923080,0.15379802,0.15509323,0.17414315,0.18701000,0.19494447,0.20217281,0.21057499,0.20360258,0.23233801,0.22261818,0.21949704,0.20094835,0.18599908,0.18776686,0.18826395,0.17508342,0.18339787,0.18507821,0.19954250,0.22667438,0.22748302,0.25999078,0.29179652,0.33874033,0.37537076,0.38776911,0.43834946,0.47239345,0.50095005,0.53543115,0.53642612,0.56435500,0.57077039,0.58288144,0.56952001,0.56034805,0.55090485,0.54078559,0.51937528,0.47652952,0.45742153,0.42521212,0.39572349,0.37199604,0.34946096,0.32974441,0.30853140,0.30539557,0.30981092,0.32118922,0.33053853,0.34218270,0.37795628,0.38737229,0.39333246,0.40830864,0.39745082,0.40003237,0.35778873,0.34636863,0.31102944,0.28262551,0.25789506,0.21881548,0.21483297,0.20433265,0.20542564,0.19786376,0.22046385,0.23034319,0.25612639,0.29015536,0.32728481,0.34335052,0.37930887,0.39835059,0.45153028,0.45874288,0.46614071,0.46659009,0.44593539,0.44390550,0.40355634,0.38406866,0.33777928,0.31901149,0.29245983,0.26585763,0.24805545,0.22345851,0.22370849,0.20240739,0.17601772,0.16693950,0.14223183,0.12754547,0.12090687,0.12934406,0.10422337,0.10786110,0.10786997,0.10541958,0.10371257,0.10805534,0.10829892,0.12086878,0.11680622,0.11915697,0.11446339,0.11563377,0.12603107,0.13613980,0.12961584,0.12515400,0.12965018,0.12781769,0.12776365,0.13220374,0.12335559,0.14255488
0.04044201,0.04340990,0.05656459,0.07043291,0.07468389,0.08636405,0.08133074,0.09315221,0.07239226,0.06417763,0.04804038,0.04087994,0.02909317,0.02605840,0.02432826,0.00880281,0.01872454,0.01368781,0.01100468,0.01775853,0.01134421,0.02218824,0.03253503,0.02991095,0.04446620,0.06174241,0.08479796,0.10697475,0.11324696,0.09539807,0.09315850,0.07359317,0.05088611,0.05047446,0.05191139,0.04657202,0.06618764,0.06815347,0.08732012,0.09503609,0.10535596,0.11959395,0.12886453,0.11871727,0.11270020,0.09862825,0.07941781,0.06929240,0.04632035,0.04181256,0.03614749,0.02831676,0.02973743,0.02106863,0.03043883,0.01567674,0.03186216,0.02361696,0.01894153,0.03036609,0.01821665,0.02263164,0.01810908,0.02693288,0.01922025,0.02483004,0.02911707,0.02367172,0.02752865,0.03350586,0.03132105,0.04450380,0.04172559,0.04566401,0.06901352,0.08315901,0.09234875,0.11536886,0.12193934,0.13181480,0.12574659,0.13119216,0.14045087,0.16042780,0.16707938,0.18937273,0.21788970,0.25744784,0.29140837,0.32511476,0.33959683,0.35957681,0.36664780,0.38420446,0.37092939,0.38081383,0.39150251,0.41422343,0.44478840,0.46556074,0.47485668,0.47664370,0.45301595,0.41765079,0.37253416,0.32921547,0.28520938,0.24430802,0.18833104,0.15755924,0.13814544,0.12013214,0.11852576,0.11981343,0.14072859,0.13581154,0.14936466,0.13784544,0.12862366,0.13108361,0.09491191,0.10290981,0.09654392,0.08026661,0.07774159,0.08031499,0.09125031,0.09539570,0.13565146,0.15282226,0.19032602,0.22645039,0.25323360,0.28319477,0.31327856,0.35035361,0.35200307,0.36151542,0.38227749,0.35879708,0.35286282,0.33500850,0.31055279,0.30828003,0.28260398,0.26442841,0.24043157,0.19154974,0.18379789,0.16897432,0.15612284,0.12782222,0.13085238,0.12087574,0.12102305,0.11427019,0.10577268,0.10579628,0.09339946,0.08535409,0.08112756,0.07153371,0.05559578,0.05861087,0.05666733,0.04487619,0.05900184,0.05848654,0.06104236,0.05310942,0.04614269,0.05721775,0.05551720,0.06821915,0.06279870,0.07167120,0.07103147,0.08923997,0.09849859,0.12342296,0.12494269,0.13286065,0.15480019,0.17436773,0.17842949,0.20807531,0.20001380,0.22249939,0.21266374,0.23466628,0.22123990,0.21307694,0.18716828,0.19324290,0.16788617,0.17526564,0.16801674,0.17568900,0.16679130,0.19343492,0.20509001,0.22707302,0.26271640,0.29368905,0.32408529,0.39122181,0.42504279,0.45795383,0.49925560,0.52862360,0.54010753,0.55388201,0.57979305,0.58006058,0.57291367,0.55993247,0.56228492,0.52453669,0.49565359,0.47457208,0.44852095,0.42080082,0.40616715,0.34346566,0.33524001,0.29898330,0.29245699,0.28525493,0.28606781,0.29578298,0.31058301,0.33521337,0.35598467,0.38545543,0.38934210,0.42163326,0.42405095,0.39397630,0.36626480,0.33985058,0.31177981,0.27559166,0.24739130,0.21479132,0.20094272,0.18073645,0.17996954,0.17633962,0.17397808,0.19652728,0.22232874,0.25085578,0.28250421,0.32200267,0.36012157,0.39355001,0.43921207,0.46369052,0.48466922,0.48735073,0.48993428,0.49919804,0.47004674,0.46689344,0.40178477,0.36481272,0.33769897,0.30453360,0.29426167,0.26618496,0.26105653,0.22058543,0.20542520,0.17194794,0.15499420,0.12409077,0.11868315,0.09100242,0.09739729,0.07853823,0.07483541,0.08979498,0.07701336,0.08156607,0.09969216,0.09812705,0.08935155,0.09240875,0.09389574,0.09109641,0.10186578,0.11325513,0.10205783,0.11327965,0.11629563,0.10932120,0.12703663,0.10568261,0.12364062,0.12186597,0.11387772
0.02351370,0.01414686,0.01620113,0.01716966,0.01668491,0.01175579,0.01171504,-0.00075924,0.00740014,0.01020844,0.00757851,0.00799376,0.00560215,0.00327908,0.00182812,-0.00301915,-0.00130619,-0.00253703,0.00276536,0.00498517,0.00074027,0.00086103,0.00216297,0.00748849,0.00909338,-0.00456760,0.01915700,0.01091640,0.02197719,0.01348992,0.01928501,0.01197571,0.02381426,0.01691702,0.03169395,0.03493438,0.04016115,0.05209408,0.07700454,0.09536033,0.11337112,0.13296726,0.13713506,0.14454465,0.13546762,0.12181674,0.10474565,0.09033279,0.07863188,0.05438909,0.04147771,0.02441184,0.02388168,0.01088867,0.01382439,0.01249981,0.01222610,0.01199721,0.01848638,0.00182021,0.00453362,0.00559692,0.01755009,0.01204711,0.00465548,0.01775013,0.00828363,0.01177964,0.00529337,0.01277177,0.01526189,0.02046604,0.01662597,0.03822115,0.04846821,0.07041265,0.10001087,0.10873098,0.12908139,0.13429428,0.15408765,0.15646365,0.16389911,0.18832475,0.20003891,0.22684767,0.27595926,0.31446442,0.35589072,0.41462436,0.45325995,0.45510628,0.46127058,0.45620284,0.43512992,0.41488187,0.37786255,0.34242106,0.29385307,0.25458138,0.22816155,0.21585462,0.18105826,0.15572209,0.13584176,0.09644162,0.09807335,0.09033638,0.07485397,0.08237764,0.06844663,0.08446849,0.09609802,0.10282679,0.12512688,0.12965754,0.14118023,0.14408165,0.13442048,0.13782501,0.11861612,0.11142464,0.08038647,0.06189932,0.05391299,0.05310007,0.03888592,0.03786363,0.03427059,0.06205502,0.05483665,0.06332449,0.05426763,0.07191399,0.08584778,0.11269307,0.10940201,0.14619954,0.15322412,0.18268621,0.20418223,0.22978547,0.23913184,0.27035915,0.24713544,0.26394007,0.25657625,0.24313241,0.21136104,0.18740189,0.16309264,0.14498975,0.13567366,0.12307806,0.08705107,0.08302476,0.07101455,0.05726224,0.06913423,0.05516595,0.05067808,0.04881317,0.05158365,0.03810072,0.04342116,0.04039858,0.03324998,0.03635972,0.03187511,0.04048762,0.04496869,0.04296205,0.03734479,0.04597533,0.05150606,0.06502799,0.06486548,0.08917457,0.10235188,0.12063017,0.15022971,0.15364804,0.19246890,0.22425226,0.24459480,0.27938508,0.29544260,0.32857200,0.31550533,0.32786985,0.32613320,0.31428655,0.29183802,0.28525089,0.27539112,0.23470662,0.21009204,0.18294323,0.16749290,0.15625759,0.13863024,0.12616188,0.10281417,0.10285617,0.11600274,0.11096623,0.11891586,0.13133196,0.14808033,0.16699871,0.18486619,0.19249407,0.21638815,0.23418364,0.26686396,0.28338397,0.30610200,0.33892124,0.34162959,0.34096347,0.35486756,0.35825734,0.34423461,0.31422154,0.30397571,0.27736466,0.26966716,0.23958985,0.20667598,0.19795907,0.15762456,0.15279440,0.15262614,0.14534717,0.12522930,0.12264956,0.12802509,0.12671451,0.11856722,0.10411867,0.10408760,0.10203879,0.09043426,0.09220728,0.07862456,0.09615127,0.09783060,0.11050529,0.12051032,0.13622832,0.16624350,0.17449006,0.20868512,0.22257595,0.25102807,0.27456449,0.31096050,0.32254040,0.33378848,0.33038565,0.35675457,0.35259974,0.36510770,0.36332781,0.33683272,0.32507714,0.30560268,0.30355782,0.30298110,0.27277574,0.27122566,0.24879246,0.24336868,0.21304362,0.20504748,0.15225479,0.14213426,0.11177354,0.09854542,0.08113297,0.09143542,0.07888677,0.07020707,0.06824492,0.07848546,0.07695209,0.08189146,0.07900206,0.08479814,0.09641874,0.11387528,0.11312589,0.10535634,0.12019799,0.11666757,0.13540033,0.12522517,0.13911888,0.14242081,0.13913970,0.15058116
0.03267245,0.02393590,0.02578861,0.03341620,0.02918232,0.03464577,0.02767756,0.04379930,0.02944613,0.01928995,0.02147301,0.01670305,0.02490592,0.01277274,-0.00180000,0.01334575,0.00189734,-0.00019571,0.01148722,0.00888807,0.00178351,0.01430979,0.01661622,0.01448868,0.02277967,0.03237138,0.03453505,0.03035457,0.02898787,0.03685016,0.04638120,0.03888909,0.03364313,0.03635773,0.03071195,0.03544829,0.04854809,0.05643883,0.07979076,0.09567709,0.10808541,0.11525534,0.12280396,0.11824902,0.11491137,0.10183208,0.08201437,0.05691563,0.05981276,0.03227990,0.02269209,0.02967949,0.01216751,0.01822753,0.01005200,0.00541588,0.01400337,0.01802570,0.01180496,0.00343264,0.01473991,0.02087612,0.01801372,0.01007470,0.01179051,0.01336048,0.01617701,0.00618470,0.01455132,0.01845067,0.01419269,0.02113317,0.02779623,0.04624446,0.05950508,0.07286267,0.10819500,0.11982396,0.14150369,0.14068964,0.16556251,0.15853868,0.18161956,0.22351820,0.26064138,0.30753043,0.38300390,0.42300678,0.49210095,0.53101552,0.57320370,0.57601777,0.58946363,0.61413641,0.59013659,0.55533304,0.50421194,0.47343180,0.41981844,0.39334279,0.33606215,0.31562728,0.27434559,0.23506199,0.22514873,0.16576899,0.14097401,0.13463096,0.13226246,0.11748124,0.14210246,0.14372200,0.17131234,0.19987805,0.22717793,0.24238686,0.24706422,0.23807015,0.21866418,0.18971696,0.16166377,0.14287627,0.11375792,0.08814321,0.07824065,0.06888860,0.05131221,0.04994196,0.07386698,0.07795784,0.08631553,0.09487918,0.11111655,0.12067379,0.14520579,0.15983388,0.17181591,0.18279937,0.20177034,0.21814282,0.20837170,0.21885325,0.21861633,0.21571956,0.22924096,0.22124909,0.20868909,0.20249788,0.15761318,0.14937308,0.12785496,0.10684189,0.11238565,0.09626801,0.08083724,0.08070756,0.06880200,0.06780392,0.07058789,0.07204108,0.05431502,0.04927637,0.03423956,0.04058722,0.03408711,0.02887383,0.02416398,0.03384931,0.03612166,0.02841366,0.04387904,0.03636324,0.04321496,0.04364426,0.05399415,0.06506371,0.07214954,0.09118181,0.11105311,0.12123089,0.15079041,0.18551440,0.21299984,0.22242680,0.25502950,0.26721473,0.28854152,0.29636390,0.30796543,0.29040372,0.28624477,0.27070204,0.27472539,0.25281040,0.21936888,0.19803514,0.16657603,0.16123881,0.14566599,0.14294610,0.15161634,0.14204014,0.13666019,0.14709046,0.17342324,0.18374209,0.21363846,0.24346906,0.28843024,0.31215510,0.33543076,0.36255132,0.40474757,0.42894195,0.50187875,0.52216701,0.54894643,0.58297783,0.61522321,0.60699178,0.58646739,0.56535917,0.54058130,0.50206178,0.46341986,0.42273133,0.39715644,0.33661651,0.30117018,0.26520799,0.23850626,0.22362133,0.21924488,0.20949659,0.21400755,0.20364833,0.20249495,0.19451804,0.18166555,0.17809180,0.16276772,0.13945269,0.14402679,0.14037138,0.13709160,0.14553213,0.16547631,0.18935624,0.21291291,0.24242260,0.28018332,0.33254227,0.37164177,0.39648681,0.42635367,0.44409277,0.48641928,0.48356661,0.48100580,0.45174157,0.44905047,0.43377985,0.41525112,0.38028494,0.33543803,0.32292437,0.29306676,0.28281938,0.26138639,0.23594172,0.23545354,0.20967658,0.18824228,0.17697579,0.15428637,0.11394275,0.10131512,0.09567510,0.08089296,0.08805179,0.07152991,0.06684152,0.06623804,0.07017357,0.07490115,0.08148971,0.08496540,0.08740810,0.09346492,0.09605077,0.10693262,0.11371012,0.11647327,0.12200553,0.12725870,0.12642355,0.12803200,0.12009391,0.14316134,0.13671892,0.14770695
0.02381839,0.03025600,0.02246147,0.02483978,0.02175521,0.02177440,0.03133006,0.03842731,0.03192975,0.02327328,0.01709271,0.02327634,0.00902947,0.00794674,0.00560230,0.00230841,0.00399257,-0.00074824,0.00175907,0.00623018,0.00438782,0.00665905,0.00932402,0.00522746,0.00960385,0.01591790,0.01971220,0.03186125,0.03466044,0.03033920,0.03548620,0.02424937,0.02321583,0.01688377,0.02645270,0.02241266,0.02224762,0.03542813,0.03274430,0.04384337,0.05111859,0.04996263,0.06685126,0.04811046,0.05509191,0.03699655,0.04782369,0.03682034,0.02659712,0.01319006,0.01262930,0.00817464,0.00307164,0.00757922,0.00478719,0.01483640,0.00605513,0.00287266,0.00141265,0.00240469,-0.00040491,0.01166786,0.00199747,0.00394358,-0.00055452,0.01619392,0.00381050,0.00349980,0.00413216,0.01098544,0.00987066,0.01302206,0.01312011,0.03191672,0.02447275,0.03347128,0.04002248,0.06117860,0.06730446,0.06506806,0.07911306,0.08720449,0.11503409,0.13550140,0.16595072,0.20190804,0.23987837,0.26601282,0.31031254,0.36936801,0.37925413,0.41170643,0.40383514,0.41523318,0.39862165,0.37174774,0.36017206,0.34432861,0.34024656,0.29960725,0.28543726,0.25769195,0.21833579,0.20160400,0.17764692,0.15105364,0.11743482,0.12038920,0.09623003,0.10087875,0.08136998,0.10094380,0.10200295,0.11735023,0.13191815,0.13927565,0.15177670,0.14435599,0.11446156,0.12323584,0.09537607,0.09155620,0.07437111,0.05919541,0.03614974,0.03160034,0.03801365,0.03509094,0.03465870,0.05399822,0.05714369,0.06999996,0.07797655,0.09186399,0.08944708,0.11440718,0.13590911,0.12860768,0.12991408,0.13732215,0.13100937,0.12850318,0.14099807,0.13293955,0.12108819,0.10990530,0.10901240,0.09862988,0.08977688,0.07738086,0.07546574,0.06534461,0.05766260,0.07273752,0.06031496,0.05671692,0.06738645,0.06161673,0.05371560,0.05313687,0.04010375,0.04651908,0.02195623,0.01062660,0.02783461,0.00982431,0.01922880,0.01213223,0.01391192,0.00985087,0.02273626,0.01615228,0.01628303,0.02227131,0.02162279,0.02826502,0.02735298,0.05809716,0.07640648,0.08044527,0.08741833,0.11755070,0.12392801,0.14436614,0.15633654,0.18227588,0.18978860,0.20134635,0.19903042,0.20274085,0.21294695,0.19157779,0.17849737,0.17658646,0.14460149,0.13196182,0.12306697,0.10276456,0.09503314,0.10140258,0.09460648,0.08571660,0.10189764,0.10247598,0.12274996,0.14912889,0.15670580,0.18181479,0.19342249,0.23542210,0.24432968,0.27288399,0.32010209,0.33068423,0.34809647,0.37713036,0.39308673,0.39566523,0.41572733,0.42099908,0.40519346,0.39170930,0.37524662,0.35137545,0.32529704,0.29581523,0.25865875,0.22962044,0.21551319,0.17970081,0.15349015,0.17097049,0.16028979,0.14334810,0.16414561,0.14740873,0.14900502,0.15590653,0.13260942,0.12766434,0.09722771,0.10524701,0.09764441,0.07941621,0.07350852,0.09399684,0.08993394,0.09532383,0.10336375,0.15271164,0.16731551,0.21205363,0.23881290,0.27019102,0.28048531,0.30637473,0.30580371,0.31391639,0.31558389,0.32697234,0.28698393,0.27620131,0.26319651,0.23342199,0.23124056,0.18806752,0.18453129,0.17479294,0.16161507,0.16880855,0.14100208,0.13560468,0.11597859,0.09339828,0.07469506,0.05154452,0.04427746,0.04176802,0.02087233,0.02418680,0.02092964,0.02503596,0.02477936,0.02943736,0.02412720,0.03553829,0.03955078,0.03263979,0.03970313,0.03832506,0.04398919,0.04646454,0.04800212,0.05020262,0.06734971,0.05956700,0.06028765,0.06300801,0.06830454,0.06460057,0.07415263
0.00645128,-0.00841816,-0.01228364,0.00509675,0.01200373,0.00583735,0.00943842,0.02203382,0.02042906,0.00874612,0.00305579,-0.00297647,-0.00501546,-0.00282665,-0.00284920,-0.00537383,-0.00564285,-0.01488791,-0.01083555,0.00215401,-0.00882039,-0.01023957,-0.00466755,0.00431180,0.00422037,0.01299803,0.01958382,0.02336776,0.02756549,0.03564795,0.03049058,0.02111266,0.02216081,0.03027481,0.04393167,0.05289449,0.07671478,0.10627871,0.13378977,0.16402360,0.18582938,0.20705607,0.22668899,0.21711360,0.21281563,0.18211419,0.15625112,0.11994941,0.08611237,0.06685619,0.05787682,0.03616853,0.03302902,0.01904659,0.01379774,0.01216860,0.00733947,0.00726581,0.01465656,0.01077690,0.00886964,0.01226792,0.01294240,0.01103335,0.00904273,0.00056390,0.01509191,0.01048957,0.01155613,0.01778732,0.02715694,0.02784165,0.03582519,0.05468750,0.08926468,0.10936975,0.15711616,0.17586636,0.18798699,0.19015773,0.17968794,0.16204126,0.14015953,0.12472130,0.10266591,0.12062688,0.12697644,0.13654964,0.15613803,0.15633141,0.18294822,0.18491925,0.21384685,0.21825417,0.24208675,0.25094034,0.25941044,0.27044187,0.26502536,0.29124902,0.28473963,0.26854653,0.24901220,0.22658079,0.21202222,0.18830505,0.16110770,0.12537989,0.10622413,0.08968726,0.07925394,0.08079933,0.07589443,0.07477350,0.07729771,0.07562380,0.07678916,0.09371474,0.08021278,0.07318463,0.08387141,0.06621680,0.05866452,0.05845970,0.07482222,0.05950395,0.05634430,0.06798479,0.07884037,0.08607429,0.11242147,0.10434151,0.14152477,0.17103016,0.17846980,0.22134749,0.23995976,0.27752093,0.31130602,0.35036659,0.35859496,0.38630043,0.39476893,0.41908716,0.39976703,0.41654764,0.38694788,0.36723797,0.33316714,0.28204754,0.26876894,0.23432614,0.20723003,0.18718730,0.17768264,0.16404343,0.15747373,0.12765296,0.13491339,0.11709257,0.09586621,0.10094600,0.08293367,0.06962348,0.05988278,0.05291944,0.06004934,0.06625477,0.06520545,0.04820934,0.06316538,0.05975627,0.06325166,0.05482909,0.06432815,0.06847502,0.06737532,0.06938865,0.07743955,0.08137604,0.09142351,0.09510105,0.10420527,0.11714387,0.12197113,0.12500468,0.13830216,0.13440988,0.14919846,0.13928957,0.13114736,0.14184540,0.12954095,0.12343494,0.12778224,0.12330384,0.12185747,0.10998151,0.11000629,0.11797340,0.12274937,0.12803180,0.14803684,0.16801435,0.17781442,0.19059701,0.22468529,0.22505082,0.26422433,0.27242205,0.28250721,0.30076177,0.32361964,0.35395979,0.34170462,0.36926126,0.38057912,0.36015717,0.36965768,0.35593889,0.33401947,0.31769296,0.30407764,0.26983632,0.26262457,0.23842188,0.22430451,0.18922955,0.20301526,0.19605716,0.19572720,0.20149111,0.20273504,0.20589347,0.21744059,0.20936212,0.21204101,0.21535585,0.20843934,0.21457172,0.18974272,0.18547476,0.17662708,0.14855383,0.12697768,0.13145568,0.12789938,0.13913935,0.14290377,0.17170786,0.16685125,0.20840155,0.23597217,0.25325908,0.29901727,0.32099249,0.38728714,0.40106749,0.45885770,0.49355510,0.50529854,0.54314692,0.53721724,0.53931907,0.54462551,0.52388824,0.51418122,0.51330857,0.49865982,0.49394067,0.46011930,0.42799807,0.37256493,0.32244385,0.29207903,0.23442565,0.19415817,0.15064322,0.12387956,0.11372595,0.12316734,0.10517101,0.09484243,0.08725735,0.09969367,0.08411464,0.09757129,0.09619228,0.08819409,0.09732848,0.09557745,0.09331442,0.09105488,0.10899950,0.10155419,0.10621015,0.10592360,0.10578703,0.10773433,0.09418555,0.11313670
0.03291160,0.03244791,0.03241980,0.03871625,0.05080652,0.03822366,0.03876801,0.04083930,0.03193889,0.03578283,0.03483130,0.03724203,0.03826360,0.03975270,0.03332149,0.03671686,0.03408159,0.02986583,0.02385995,0.03703947,0.03323930,0.03586033,0.03988831,0.03792026,0.04538765,0.04878620,0.05462426,0.05401054,0.04739103,0.05360460,0.06419074,0.06240083,0.07158172,0.08656504,0.09595076,0.11302599,0.14779146,0.17405320,0.23247413,0.26329075,0.28840384,0.33184470,0.33675695,0.34301200,0.31327529,0.28277141,0.24958729,0.21647690,0.15833707,0.13040747,0.10623096,0.08895656,0.06535468,0.06390574,0.06218923,0.05551599,0.05831010,0.05073021,0.05943329,0.05743131,0.05357359,0.05621748,0.05930207,0.04793865,0.05842398,0.04894479,0.06493054,0.06483955,0.05513487,0.06804103,0.07068248,0.07794475,0.09567063,0.11939202,0.14318674,0.20599426,0.22771645,0.26483227,0.30246417,0.27915101,0.27159622,0.24228666,0.21121912,0.19098230,0.18325299,0.18038379,0.18686334,0.22151223,0.23312201,0.26336838,0.27777666,0.30936894,0.32528591,0.33527112,0.33117815,0.34620979,0.33656518,0.33417928,0.32308021,0.30880402,0.28625437,0.25668601,0.25051833,0.22769981,0.18451106,0.17403944,0.15699810,0.13696379,0.13707350,0.12601774,0.12441633,0.13571119,0.14375980,0.16155076,0.17758894,0.18191758,0.16581834,0.19343729,0.17542922,0.16642764,0.15808199,0.13401825,0.13883282,0.10897598,0.10865201,0.10944146,0.10424416,0.10281772,0.11200283,0.11966661,0.13283343,0.13616163,0.14121462,0.17072948,0.19752221,0.21789523,0.26584113,0.31096665,0.34594470,0.40656355,0.46102961,0.49782622,0.51154505,0.55703454,0.55623181,0.55307872,0.52059923,0.48702084,0.44971380,0.41055054,0.36844278,0.33194874,0.28742932,0.27590482,0.23536609,0.23310881,0.21693618,0.20127020,0.19068712,0.18162407,0.15555341,0.14220087,0.12608732,0.12928843,0.11858201,0.11450712,0.10676921,0.11640241,0.10564141,0.10080170,0.09142097,0.10982301,0.10798358,0.10876260,0.10798493,0.11277009,0.11084611,0.12587121,0.12164827,0.11104724,0.12829119,0.13151278,0.12110769,0.13983052,0.13884490,0.14744743,0.15051889,0.15476077,0.16008305,0.15065725,0.14373687,0.13768977,0.15828269,0.15333323,0.15685905,0.14648089,0.14418172,0.14338355,0.15198907,0.15844464,0.14884519,0.15127685,0.15445912,0.15460918,0.18873775,0.18855928,0.21863686,0.23443918,0.25482392,0.27135348,0.29400684,0.31676043,0.34904506,0.37833151,0.40582841,0.43264168,0.46025795,0.45352056,0.48139843,0.47341096,0.48482314,0.47549606,0.45875063,0.41256831,0.40633519,0.36584337,0.33996846,0.30409961,0.29206628,0.25772080,0.24346111,0.21526293,0.21737987,0.21703796,0.21795293,0.20420395,0.20283559,0.19323986,0.20274331,0.20980029,0.19623638,0.17924247,0.17796208,0.18294371,0.18323362,0.19432273,0.19466681,0.21605477,0.23029439,0.26438233,0.29683868,0.31975503,0.34875509,0.40103212,0.43856583,0.48439333,0.53131914,0.55633611,0.61808424,0.65440716,0.66501104,0.67348985,0.69717783,0.69369226,0.70108552,0.68347292,0.68084815,0.65826530,0.65022850,0.62224191,0.58831956,0.57936165,0.51479491,0.44022990,0.38482902,0.33378734,0.27552773,0.24049428,0.20808323,0.19329743,0.17499371,0.17674708,0.15924972,0.16750649,0.15987919,0.15920748,0.16151655,0.15199931,0.16654512,0.15604307,0.16118784,0.16287156,0.17206904,0.16912485,0.17723539,0.17754278,0.16236006,0.16558454,0.16332859,0.17470394,0.16209544
0.02120581,0.02488871,0.02830727,0.04281463,0.05380792,0.04309116,0.05299072,0.04903452,0.04163542,0.04992169,0.03608116,0.02121981,0.01099813,-0.00329948,0.00328789,0.00307010,-0.00592030,0.00277937,-0.00447457,-0.00314211,0.00116323,0.00157993,0.00827487,0.01701655,0.03068556,0.03993104,0.06804255,0.06485982,0.07308464,0.08981840,0.07420950,0.04887710,0.02695968,0.02918985,0.01869025,0.01560239,0.01977515,0.01519513,0.02293883,0.02973880,0.02977340,0.03568397,0.03684447,0.03170265,0.02453946,0.02717592,0.02590030,0.02687602,0.02493804,0.01317877,0.00994125,0.02004475,0.01332267,0.01635176,0.00720380,0.01897703,0.02985230,0.00631239,0.01004520,0.01870940,0.01639617,0.00436565,0.01645100,0.01942360,0.01929609,0.01835561,0.01366149,0.02729972,0.02806572,0.02566685,0.02468394,0.02106659,0.03060179,0.03685118,0.03797991,0.03304475,0.04813570,0.06152090,0.05826218,0.06196199,0.08171470,0.08455412,0.10009252,0.12533143,0.15680297,0.18649359,0.22377566,0.25681177,0.30268569,0.31266118,0.33956775,0.35787433,0.41408857,0.42853864,0.43605439,0.44867732,0.45444423,0.47866740,0.50239573,0.48551514,0.48968379,0.49572217,0.45424725,0.42966116,0.37590098,0.33055612,0.27414877,0.21497703,0.17619192,0.15572961,0.13231833,0.12485743,0.12411036,0.11209033,0.11970807,0.12936785,0.13018764,0.11255820,0.11878422,0.11505413,0.10246009,0.09243809,0.08896242,0.07463242,0.08045912,0.08779715,0.09284162,0.09961622,0.12701252,0.14253426,0.16928368,0.19157881,0.21499576,0.25218732,0.24332811,0.26658080,0.29158150,0.27681238,0.27998747,0.24908655,0.23970168,0.22195724,0.19601742,0.17365814,0.16716507,0.14023191,0.12432555,0.11709726,0.10972653,0.11785786,0.11695706,0.12522968,0.14673183,0.16194285,0.16434141,0.17992521,0.18274885,0.17576718,0.16079029,0.14568268,0.12216223,0.11254362,0.09330203,0.09364085,0.07749675,0.06792634,0.07717940,0.06128476,0.07145509,0.06960354,0.07020095,0.06938853,0.07396372,0.07559585,0.07459142,0.09835644,0.10027891,0.11011508,0.12031612,0.14853206,0.16186954,0.16268996,0.18580718,0.20452010,0.22365467,0.24046421,0.25619105,0.25582686,0.26343857,0.25309631,0.25410436,0.24670093,0.24056369,0.22519843,0.22990517,0.20883468,0.20727045,0.18895297,0.20034715,0.18852558,0.20624730,0.23411144,0.25447154,0.28907987,0.30628090,0.35878756,0.40153977,0.42137652,0.47257735,0.49758624,0.54772258,0.56566772,0.57452463,0.60247297,0.61411399,0.63066888,0.61024554,0.60291430,0.58329704,0.55318581,0.52391299,0.50712287,0.44967213,0.43739073,0.37722005,0.34612840,0.35055908,0.33526881,0.31334499,0.29874782,0.30663518,0.31699307,0.34296580,0.35656903,0.37643805,0.38662809,0.39649041,0.39493165,0.37880964,0.32740394,0.33100289,0.28871112,0.24833916,0.23410218,0.19889426,0.19877386,0.18097707,0.19836746,0.20573440,0.23850016,0.27143648,0.30784345,0.34677845,0.38211235,0.42599102,0.43530190,0.47806283,0.46988092,0.48879345,0.47293450,0.46889278,0.47341543,0.42815798,0.40132612,0.38144638,0.36980443,0.33980555,0.32092480,0.29996652,0.28852950,0.24969019,0.24548635,0.20334613,0.19230156,0.17434463,0.16299275,0.13701203,0.13649622,0.12834806,0.12360482,0.11166050,0.12681860,0.12200640,0.11971396,0.12638895,0.12887303,0.12241023,0.13740582,0.14065444,0.14499328,0.14745091,0.16009193,0.14993547,0.16348066,0.16782202,0.16389939,0.17395542,0.16455187,0.16661931,0.17065145,0.17314827
-0.03848550,-0.02176828,-0.02808750,-0.02681434,-0.01132836,-0.01547976,-0.01082157,-0.01553567,-0.02162833,-0.01325279,-0.02521038,-0.02521758,-0.04013452,-0.02916941,-0.03552242,-0.03473035,-0.05018804,-0.03010946,-0.03333790,-0.03756683,-0.02454210,-0.02981835,-0.01685580,-0.02312252,-0.02955391,-0.02048375,-0.01202357,-0.00189589,0.00323003,0.01221636,0.00583964,-0.01044970,-0.00721437,-0.01914481,-0.01396864,-0.00435248,-0.00802161,0.00098721,-0.00012847,0.01577262,0.02587859,0.03336738,0.03473168,0.03783867,0.03552766,0.01905054,0.01402883,0.00883221,0.00140789,-0.00160622,-0.01236988,-0.01387296,-0.00885513,-0.00539333,-0.01614654,-0.02062314,-0.01237118,-0.01556045,-0.00401545,-0.01676240,-0.00619150,-0.01544730,-0.00959726,-0.01016488,-0.02119651,-0.01383115,-0.01270777,-0.00845891,-0.00138674,-0.00416513,-0.01479171,-0.01001532,0.00540455,0.00436720,0.01737554,0.02554238,0.03097272,0.03858450,0.03418360,0.04183098,0.03908917,0.04422366,0.02628094,0.02370913,0.02736485,0.04019475,0.04386001,0.06408337,0.08217705,0.10692328,0.15656730,0.18658815,0.23210685,0.29766558,0.35733139,0.40607168,0.48935371,0.52150086,0.53823645,0.56658665,0.55248528,0.49587492,0.46247098,0.39489643,0.33301748,0.28501575,0.22459313,0.16881139,0.12612445,0.09739826,0.06491567,0.05225841,0.04255877,0.04023638,0.05060136,0.04796953,0.04306166,0.04598884,0.04423986,0.03901433,0.03849631,0.02886886,0.03036077,0.03237857,0.04344697,0.03450342,0.04687480,0.04832266,0.05579190,0.05935967,0.08282091,0.09258719,0.10815425,0.12428778,0.14331153,0.13286738,0.16362108,0.16045041,0.15877987,0.17230010,0.17003939,0.18181933,0.16537819,0.15884201,0.15673515,0.15663960,0.14859496,0.13942247,0.13824815,0.15683668,0.16267817,0.20755607,0.23379302,0.28527914,0.32148452,0.34993731,0.37555393,0.37525829,0.33792575,0.28946645,0.24112937,0.19869898,0.15745004,0.12838532,0.09239913,0.07871694,0.05890480,0.05326044,0.05709943,0.05712237,0.04912073,0.04200986,0.04619375,0.04652814,0.05112018,0.05459215,0.06210709,0.05556464,0.05190270,0.05869064,0.06236965,0.06458312,0.06503605,0.05784795,0.05580150,0.06406330,0.05910254,0.07346522,0.07543750,0.07919518,0.07273416,0.06647012,0.07745512,0.06848802,0.07561034,0.07491721,0.09287460,0.09069494,0.09871490,0.10544174,0.11029929,0.12345002,0.15040123,0.16702522,0.19843742,0.23406758,0.25617521,0.29648053,0.35238345,0.38443010,0.42437757,0.48286271,0.53973041,0.59532502,0.64398536,0.69962723,0.71569828,0.71108384,0.72749829,0.73400924,0.69308321,0.65352457,0.61470021,0.55938225,0.47979666,0.42590133,0.38503319,0.33555388,0.28911194,0.26204718,0.24552350,0.23651694,0.22121786,0.23586316,0.23760353,0.23661945,0.24010723,0.22212769,0.23171362,0.21440650,0.19229560,0.18729943,0.16987491,0.16653371,0.16690508,0.15922921,0.16745233,0.17482968,0.20018957,0.25008320,0.29325634,0.36108641,0.41456538,0.51122615,0.54297266,0.60699880,0.65502079,0.68812962,0.66503757,0.66102974,0.65361926,0.62257013,0.58255238,0.57482442,0.59873063,0.59309293,0.60274033,0.59498077,0.60890047,0.57985255,0.54733167,0.49789929,0.42638903,0.38240806,0.30503745,0.26263153,0.21791041,0.16643837,0.15934645,0.14748647,0.12713786,0.12414660,0.12276674,0.11925571,0.13146632,0.12810859,0.12600798,0.12479937,0.12559025,0.11191717,0.12509512,0.12426262,0.12732672,0.12362489,0.11804752,0.11735368,0.11554034,0.12606838,0.11918584,0.13324162,0.12424690
0.00981435,0.01282030,0.02086657,0.01533251,0.02497147,0.01665940,0.01972066,0.02645733,0.02331554,0.01923025,0.01120436,0.00557113,0.00162848,0.00068428,-0.01391965,-0.00659465,-0.00434755,-0.00077785,-0.00980608,-0.01102464,-0.00968579,-0.00708261,-0.01093670,0.00628158,0.01142719,0.02134024,0.01708649,0.04450222,0.03463240,0.03563481,0.03046878,0.01820637,0.00641264,0.02077254,0.00807247,0.00548491,0.01116774,0.00433232,0.01132588,0.02093272,0.02575643,0.02681245,0.02496867,0.03920830,0.02660924,0.02118715,0.02302126,0.02057246,0.00663057,0.00248439,0.00210583,0.00724421,0.01214338,0.01077290,0.00842238,0.00535974,-0.00138749,-0.00109333,0.00598603,0.00581375,0.00319863,0.01661987,0.00385031,0.00173601,0.00879608,0.01563075,0.01830143,0.01374560,0.01590286,0.01065181,0.01861730,0.01201876,0.01279529,0.03035950,0.03250381,0.03169329,0.03958712,0.03957389,0.05129918,0.06813580,0.07227160,0.08142566,0.10295754,0.11798470,0.13896150,0.17630498,0.20578141,0.22868789,0.27865426,0.30938400,0.30516629,0.37837343,0.37760975,0.42744441,0.42737094,0.46770484,0.48611745,0.49931391,0.53817123,0.51979564,0.53002020,0.49324082,0.46398175,0.40456074,0.33460828,0.29160034,0.23120754,0.19251325,0.13831336,0.12676072,0.09283860,0.07126844,0.07225756,0.06390494,0.06522886,0.07033526,0.05947412,0.06167394,0.05162524,0.06123199,0.05251895,0.04638217,0.04202942,0.05900247,0.05362743,0.06934861,0.06881471,0.06726313,0.09167439,0.10967760,0.11422997,0.13169089,0.14635984,0.15814634,0.18145004,0.18228355,0.20237358,0.19444050,0.19876301,0.20680541,0.19008640,0.17595988,0.17382976,0.16082428,0.14379396,0.13532660,0.13785775,0.12703477,0.11957272,0.13360300,0.13951101,0.15401280,0.19966807,0.21284259,0.24758140,0.25431614,0.28534794,0.27344239,0.27513256,0.23489357,0.20408279,0.16183970,0.13759654,0.11398658,0.09116963,0.08604859,0.07465521,0.07183854,0.06048639,0.05902347,0.06267416,0.08816074,0.07625909,0.08036718,0.09096638,0.09209653,0.10411725,0.13165002,0.15122376,0.16437968,0.18166083,0.20288693,0.23021966,0.26252102,0.27734109,0.29485786,0.32705054,0.32489577,0.32071267,0.32906759,0.32442828,0.33284536,0.30212190,0.28940492,0.25735997,0.23558200,0.23190828,0.21373259,0.20964364,0.19866450,0.19082164,0.19704664,0.19972607,0.22734015,0.25552953,0.27764624,0.30022374,0.33852960,0.37095243,0.42375898,0.43747839,0.48952504,0.54360998,0.54924064,0.57239706,0.57800839,0.60229756,0.60600771,0.60095682,0.58736122,0.56892332,0.53465588,0.49199298,0.43942445,0.39718899,0.36092006,0.31901239,0.28773012,0.26749607,0.25745113,0.24054610,0.25170855,0.25050746,0.27167739,0.26591490,0.27577435,0.27838780,0.27543630,0.26853985,0.26080981,0.23560874,0.22240636,0.19636075,0.18210438,0.18274464,0.17203672,0.17987830,0.18443409,0.19586992,0.21745935,0.26271916,0.29715910,0.35106534,0.40184022,0.44170267,0.48318899,0.51270674,0.53266793,0.55234873,0.52448898,0.52203314,0.51223829,0.49465667,0.47199473,0.46428185,0.45762590,0.47890867,0.45645000,0.44702862,0.43955959,0.41347573,0.37166510,0.33832722,0.27822857,0.24085645,0.19909769,0.19274726,0.16483562,0.15091002,0.14177131,0.14187868,0.13324316,0.13571121,0.13522617,0.14119203,0.13809522,0.14944816,0.14758299,0.15102928,0.15808553,0.15466633,0.17181953,0.18422570,0.18954434,0.19606559,0.17566801,0.19872109,0.20339697,0.19063028,0.18765884,0.20911812
0.02563548,0.01368793,0.01966962,0.02070423,0.00594978,0.00976511,0.01538003,0.00867285,0.01358314,0.01892053,0.00502360,0.01374837,0.01149440,0.01370848,0.01726297,0.01371535,0.00836310,0.01509656,0.01642760,0.00820607,0.00725913,0.00217939,0.01632161,0.02051614,0.01667575,0.00264182,0.01861977,0.01135931,0.00921356,0.01904472,0.01525394,0.02185320,0.03146831,0.02617083,0.04543303,0.05739724,0.07404263,0.09238167,0.11690106,0.16572532,0.16093410,0.17787355,0.19802938,0.18995829,0.17007316,0.15073986,0.11342424,0.09547362,0.08910212,0.05552067,0.04878078,0.03159743,0.02583410,0.01640776,0.01030059,0.02044566,0.02013269,0.01656124,0.02162497,0.01356790,0.03155407,0.01801544,0.01293379,0.02066572,0.02086339,0.02185473,0.02215919,0.01913656,0.01947701,0.02620788,0.03327866,0.03091890,0.04863861,0.05449362,0.08418030,0.10971528,0.13310166,0.17134515,0.17034469,0.18086774,0.18226504,0.18908784,0.18819412,0.19546345,0.21929176,0.24569830,0.28832957,0.33990400,0.37494150,0.39050983,0.43564212,0.46255873,0.44788914,0.46068219,0.44522399,0.42797455,0.38281597,0.37000806,0.32350241,0.26673847,0.24308609,0.20165110,0.16686427,0.13162927,0.11392275,0.09267196,0.07392231,0.05751601,0.06802504,0.06642919,0.07767421,0.08245453,0.11184871,0.11767371,0.13805098,0.13865128,0.13860231,0.14202365,0.13010966,0.12775502,0.10698766,0.07999300,0.07282619,0.06230051,0.04550046,0.04143679,0.04657742,0.03847788,0.03955332,0.03381036,0.04081825,0.04538110,0.05279993,0.06064837,0.08151263,0.08828503,0.11227799,0.14240285,0.16439543,0.19112828,0.22738751,0.24938105,0.27457384,0.28577689,0.30090584,0.29744895,0.27022020,0.25320340,0.24441771,0.20829302,0.19256704,0.17447268,0.16759477,0.15421967,0.14451279,0.14368379,0.13566774,0.12848669,0.12485841,0.10982362,0.08897293,0.07947733,0.06444530,0.05327767,0.03706384,0.03390803,0.03972540,0.04388770,0.04345336,0.04502103,0.04049328,0.03873661,0.04593800,0.05804386,0.05264897,0.06096120,0.08118605,0.08894684,0.10643012,0.14415560,0.15723067,0.17545916,0.19845000,0.22891498,0.24754076,0.26208302,0.26055450,0.28167866,0.29966445,0.29025729,0.28476352,0.27552299,0.24948311,0.23046110,0.20233702,0.17338142,0.16528134,0.14334378,0.12167035,0.10839682,0.09490048,0.07611489,0.07937057,0.08234044,0.08512700,0.08210724,0.10537469,0.10460337,0.11946111,0.15085033,0.18945917,0.20811935,0.23897691,0.27404689,0.30461732,0.33868238,0.37337051,0.40195220,0.41289426,0.40632721,0.40811529,0.40130045,0.37324037,0.35644360,0.34039498,0.29414473,0.27375936,0.23132836,0.19419149,0.15675894,0.12334129,0.11699109,0.09916513,0.08469492,0.07785098,0.06929250,0.06165360,0.05106919,0.06785496,0.04866647,0.05598371,0.05986839,0.06692950,0.07242289,0.07226720,0.09435916,0.09927839,0.13013173,0.15006275,0.18055065,0.20349736,0.24570241,0.28849654,0.31037534,0.35107736,0.36446953,0.39345483,0.41492025,0.42539439,0.42284974,0.43842903,0.43716466,0.42490794,0.42387308,0.40730608,0.41561234,0.39841002,0.38085889,0.38527331,0.35437946,0.34792588,0.30716282,0.28674506,0.24864428,0.18902654,0.14205097,0.12112063,0.10285845,0.08723632,0.09192852,0.07903925,0.07553195,0.06407285,0.07294697,0.07407323,0.07536100,0.07382080,0.08050796,0.08552921,0.09508600,0.09669781,0.10270069,0.09190526,0.11141204,0.10817987,0.11713330,0.11879206,0.12009349,0.12592812,0.12180516,0.12305568
0.00820820,0.01851534,0.00018164,0.00976980,0.01231611,-0.00129114,0.00851521,0.00364821,0.00222173,-0.00042307,0.00186894,-0.00272396,-0.00666133,-0.00688992,-0.00469620,-0.00390401,-0.00451211,0.00287824,0.00108007,0.00877802,0.00326913,0.00000719,0.01182051,0.00891113,0.00993410,0.00576980,0.00922252,0.01807952,0.02071466,0.01970193,0.01636160,0.02101141,0.02670701,0.02390948,0.02926678,0.02623886,0.04467005,0.06339136,0.08394960,0.09968044,0.10414463,0.12679998,0.11588215,0.12816130,0.11755489,0.11435460,0.09446082,0.08608548,0.06895827,0.03968649,0.04499601,0.04226273,0.03532607,0.03405038,0.02671809,0.02535853,0.03083195,0.01705998,0.02566376,0.02916952,0.02249783,0.02642157,0.02604579,0.03057836,0.02090874,0.02849397,0.03661618,0.03118393,0.04093618,0.02878660,0.03228507,0.03857155,0.04361188,0.05964872,0.07996489,0.09468160,0.12349302,0.13816405,0.15769054,0.17006344,0.17376875,0.18764729,0.18900424,0.20494870,0.22099247,0.25247399,0.28180667,0.32095054,0.35573763,0.39252548,0.41426413,0.41929729,0.42522797,0.42475538,0.43776265,0.40548831,0.40951087,0.36365442,0.33387769,0.33003193,0.30017190,0.28020469,0.24314606,0.21745190,0.19936546,0.17970651,0.14750217,0.12651877,0.10656983,0.10206788,0.08487693,0.09388403,0.08721165,0.08772984,0.09266392,0.08186877,0.10334588,0.09513725,0.09501262,0.08578536,0.08653822,0.08111042,0.07996020,0.08185202,0.08626280,0.07517421,0.08031552,0.07436347,0.09278369,0.09376998,0.09951645,0.11430415,0.12897462,0.15028894,0.14427242,0.17818778,0.17995588,0.20597578,0.22611996,0.22881996,0.24379703,0.26697053,0.26852229,0.28952672,0.28448016,0.28990516,0.24441612,0.27073023,0.24970196,0.22329997,0.21145010,0.22171757,0.20268975,0.19863589,0.21020390,0.20428795,0.20576835,0.19946256,0.18934875,0.16701385,0.16289790,0.14113756,0.14086381,0.12066223,0.10612428,0.11230004,0.11391396,0.10396616,0.11014583,0.09952193,0.11494009,0.11261032,0.12365946,0.11840695,0.14086315,0.15919177,0.15997329,0.19420340,0.20188148,0.23699987,0.26434466,0.30373158,0.31739127,0.37500679,0.40362706,0.41630574,0.45938516,0.46389672,0.48091872,0.48921162,0.47559369,0.43042190,0.43950132,0.39973008,0.36466741,0.32963814,0.31346537,0.27595645,0.25379452,0.22801985,0.22193840,0.20039478,0.21329279,0.20998337,0.20717890,0.21735000,0.21762910,0.22367612,0.25209804,0.26072405,0.27357952,0.30259946,0.31209049,0.32103228,0.36456787,0.35760250,0.37066955,0.37805832,0.37192102,0.38169686,0.35931187,0.35245455,0.33259744,0.30864836,0.29837088,0.28595726,0.26698395,0.24468312,0.22602392,0.22589746,0.20903523,0.23185844,0.21958659,0.21252175,0.22143173,0.22106647,0.21667731,0.22298675,0.21852117,0.20791164,0.20780190,0.20690004,0.21060414,0.18582758,0.18608343,0.19751480,0.19750607,0.18991084,0.20614375,0.23181481,0.23826459,0.28119780,0.28432613,0.32915397,0.34241487,0.36430933,0.39656337,0.42222799,0.44307700,0.45932237,0.46033509,0.48186506,0.46216417,0.45344347,0.48666483,0.47588438,0.46220403,0.46795292,0.44963731,0.44701434,0.43127378,0.40731826,0.37896849,0.35623422,0.31013424,0.28704045,0.24301150,0.21979993,0.22571386,0.22090105,0.21105155,0.20217781,0.20666682,0.21286269,0.21909853,0.21913115,0.22685820,0.22865241,0.24499065,0.24598310,0.26427971,0.26496136,0.26287623,0.28500506,0.27803713,0.29690011,0.29926981,0.30476759,0.30309778,0.29917469,0.29660720
0.03246768,0.03416544,0.04448497,0.04517515,0.04132414,0.05328082,0.05274839,0.04720179,0.03996421,0.03521039,0.04186465,0.02564090,0.02568156,0.02320947,0.02381350,0.01937843,0.00825865,0.01950013,0.01144587,0.02137110,0.01475520,0.02282825,0.03092163,0.03006832,0.03448003,0.04822424,0.04788935,0.05718787,0.06333650,0.06333577,0.04213025,0.05468218,0.03864214,0.03928329,0.04596780,0.05502847,0.05627726,0.08467447,0.08648160,0.10735312,0.11350872,0.11316251,0.12702927,0.10503532,0.10822683,0.09358214,0.07389674,0.07262866,0.04842000,0.05029646,0.04123895,0.02335122,0.03717346,0.03047496,0.02124487,0.02381401,0.01440626,0.02492426,0.02708606,0.01808861,0.02686846,0.02682305,0.01946414,0.02181598,0.02648023,0.02584516,0.01927829,0.02773310,0.02468700,0.03588420,0.04077008,0.03693900,0.03900203,0.06439273,0.06755626,0.08546783,0.09716190,0.11366366,0.11107576,0.11235452,0.11618698,0.11529945,0.10955191,0.13450458,0.14685061,0.16455850,0.19087754,0.22346013,0.24364408,0.28475888,0.30093410,0.31802088,0.32997053,0.34047215,0.37764818,0.37224220,0.39550191,0.40039273,0.41674820,0.39141491,0.37962378,0.36492514,0.35517999,0.30028842,0.25668750,0.21778680,0.17971890,0.15938163,0.12756948,0.11331596,0.10494048,0.10210464,0.11306425,0.12776626,0.12492367,0.11871209,0.11795646,0.11373235,0.10343947,0.09678338,0.09402602,0.07592252,0.07325598,0.06907380,0.05855978,0.06806235,0.07582856,0.08431972,0.09405860,0.09991562,0.12112512,0.14626058,0.15606554,0.17861430,0.20787921,0.22266144,0.23779176,0.23801186,0.25221675,0.25019662,0.25484874,0.26847522,0.26367189,0.24976784,0.23949844,0.21798116,0.20701572,0.19427022,0.17757938,0.17336735,0.15543136,0.16616134,0.16654941,0.18571724,0.17663777,0.18746115,0.18564408,0.15550916,0.14840941,0.13122958,0.11350842,0.07881416,0.08932638,0.07669565,0.05979221,0.06264928,0.05767200,0.05652778,0.05852273,0.06214879,0.06721404,0.05224507,0.05740154,0.05416799,0.06686476,0.06885873,0.07780035,0.07984931,0.08022518,0.09814446,0.11005257,0.12767729,0.12524553,0.13768331,0.14729940,0.15128994,0.16967915,0.15727930,0.16613939,0.15334168,0.14877352,0.14827375,0.13514311,0.14898660,0.13678518,0.13122494,0.12460837,0.12033625,0.12706566,0.13351417,0.14415015,0.15973983,0.20176112,0.20701283,0.25523913,0.25612200,0.30200288,0.32008818,0.36740346,0.38340963,0.41335965,0.44145977,0.48830477,0.49998648,0.50241879,0.51063948,0.52666870,0.52298348,0.50052982,0.48472117,0.47611866,0.42978631,0.39675685,0.37208082,0.33147936,0.31106921,0.27747577,0.26098630,0.23926485,0.23511062,0.24238737,0.25404469,0.25284624,0.25761231,0.25008548,0.25635127,0.24813725,0.25577025,0.23317145,0.21234182,0.18593045,0.18709714,0.15936299,0.16364528,0.14265026,0.15973492,0.16346366,0.17830095,0.21928649,0.23994607,0.27186000,0.31003665,0.33871273,0.40047441,0.42021660,0.45088954,0.45606289,0.48160709,0.49141527,0.48525910,0.45200653,0.46735002,0.42898624,0.42301642,0.43053279,0.39163635,0.39292099,0.36397559,0.35508111,0.33169416,0.31747376,0.26490404,0.24279475,0.21372685,0.16842982,0.14700617,0.12506227,0.10184459,0.08912664,0.10965393,0.08674836,0.08624406,0.09207506,0.09366389,0.09403928,0.09957154,0.09329558,0.09579095,0.09262932,0.09351648,0.09949704,0.10428644,0.10924997,0.10917906,0.10890649,0.10814728,0.10692086,0.11220189,0.10607738,0.11512065,0.10711338
0.01031631,0.01567675,0.01221649,0.02181924,0.02415980,0.02675157,0.03115125,0.01763805,0.00883880,0.01634516,0.01134383,0.00086045,0.00371511,-0.00427957,-0.00538331,-0.01166045,-0.00823308,-0.00559966,-0.01609011,-0.01153145,-0.01909883,-0.01116715,-0.00621547,0.01350942,0.01200068,0.02621764,0.03496462,0.04395925,0.04703956,0.03457461,0.03046477,0.01174795,0.01072125,0.01334062,0.00502519,0.01151497,0.02153245,0.00876283,0.01702824,0.01818488,0.02301118,0.02274697,0.03332297,0.03092047,0.01885554,0.02382635,0.01285011,0.00095424,0.01111037,-0.00092398,-0.00439636,0.00221962,0.00378199,-0.00455037,0.00331253,-0.00816811,-0.00353396,-0.00727400,0.00063259,-0.00501814,-0.00506793,-0.01252940,0.00170260,-0.00037295,0.00206459,0.00222617,-0.00311845,-0.00378829,-0.00852602,-0.00590611,0.00491573,-0.00722657,0.00920942,0.01146027,0.00948092,0.03335810,0.03199756,0.03669337,0.03945219,0.04711100,0.04999990,0.05569251,0.07008379,0.07975201,0.09521577,0.11483340,0.12716323,0.14397790,0.18331266,0.19858120,0.23828823,0.27130760,0.31416370,0.35126061,0.38347772,0.42240578,0.46666335,0.47991472,0.50934397,0.49482529,0.48303879,0.47257986,0.43832476,0.36597541,0.30756062,0.24400653,0.20436201,0.16520831,0.11528865,0.09942940,0.08440898,0.05437705,0.06223377,0.06761078,0.06324835,0.07890016,0.06467485,0.06658270,0.05852760,0.05768170,0.04651780,0.04588565,0.04225695,0.02683103,0.03607019,0.04676964,0.04822924,0.05679512,0.07535015,0.07989690,0.09551022,0.10773291,0.12976480,0.16030924,0.16489661,0.18037254,0.18196655,0.19302243,0.18690480,0.18550364,0.17048091,0.15769941,0.14234535,0.13321042,0.13777377,0.11233392,0.10468665,0.10771604,0.10000337,0.11092979,0.11682332,0.14443487,0.17333959,0.19696992,0.22467040,0.23371915,0.25221048,0.23501253,0.20976980,0.17826660,0.14311004,0.11622279,0.08722446,0.06725222,0.04372712,0.02669114,0.02083011,0.02086313,0.03655542,0.02632714,0.01927397,0.02330892,0.01366779,0.02832770,0.03132307,0.03796119,0.04323372,0.05487919,0.04120422,0.06054027,0.07560662,0.08665510,0.09034978,0.11200012,0.11303591,0.12185108,0.12753354,0.13270470,0.12484255,0.13394288,0.12253099,0.13096563,0.12734797,0.11461444,0.10876436,0.10631416,0.08876308,0.10949063,0.09941426,0.10923018,0.12252521,0.13023381,0.16500272,0.18001266,0.21623614,0.25940317,0.28676799,0.31388982,0.38286188,0.42240910,0.44001025,0.48526782,0.52576265,0.56651475,0.59760537,0.61085593,0.61510145,0.61357635,0.61012441,0.58982472,0.55949557,0.50976650,0.46334702,0.40901447,0.37735905,0.33803729,0.29062448,0.26830813,0.24085650,0.21714187,0.23474241,0.22475287,0.23136452,0.22944685,0.24303911,0.24733948,0.24752038,0.24090119,0.23024875,0.21459544,0.18961606,0.17626592,0.14637547,0.13657248,0.12286616,0.12737326,0.12571819,0.14345966,0.17615698,0.19781422,0.24337141,0.28638890,0.35161575,0.39880492,0.44236822,0.48396596,0.50288661,0.52425297,0.52422046,0.51055687,0.50923464,0.46587351,0.43758832,0.42514547,0.40026536,0.40871105,0.39092689,0.40163229,0.37496417,0.36066545,0.32259577,0.30032250,0.23867636,0.19944677,0.16814496,0.13823249,0.09042173,0.07982850,0.07240401,0.06241009,0.05330747,0.06052602,0.05987872,0.06194934,0.04965637,0.06075341,0.05782250,0.06660546,0.06198583,0.05486716,0.07469780,0.07723182,0.07989039,0.06245685,0.07158852,0.07308142,0.07914895,0.06888770,0.07762527,0.07783904,0.08254306
0.06633020,0.06138725,0.06980474,0.06389831,0.07185867,0.07748901,0.07866761,0.08502972,0.06990725,0.06844239,0.07291328,0.06819320,0.05014194,0.05393232,0.05198403,0.04584992,0.04075452,0.04897778,0.04699091,0.04602643,0.04411071,0.06082357,0.05831074,0.05828342,0.06189652,0.07847859,0.07931460,0.10450438,0.09163727,0.08582150,0.08263789,0.08157923,0.07850252,0.08344718,0.07335963,0.09018253,0.09282549,0.10270074,0.12833488,0.13430468,0.14584293,0.15491925,0.15073760,0.15327330,0.13873564,0.13942724,0.13295288,0.10182736,0.09605681,0.09204628,0.07780861,0.06551131,0.06166819,0.06521500,0.06344247,0.06531586,0.07546084,0.06367328,0.06779988,0.06363981,0.06258139,0.06638421,0.06867448,0.06249877,0.08308968,0.06477553,0.06890420,0.07105584,0.07829569,0.07490767,0.06343640,0.08441668,0.08290648,0.09613885,0.12656600,0.14271873,0.15422206,0.16121164,0.18046199,0.18159458,0.18150388,0.18894215,0.19711458,0.20610978,0.24956706,0.26723344,0.32251316,0.35457492,0.38734366,0.45037184,0.43241513,0.45920061,0.47182878,0.45849215,0.45568996,0.43471691,0.40942304,0.39855304,0.36975569,0.37353034,0.36170211,0.33027881,0.32495656,0.29983814,0.26876908,0.23512009,0.22257619,0.19413695,0.16702450,0.17082123,0.16681502,0.18365894,0.19769950,0.21017568,0.21902191,0.22691081,0.23188410,0.22061794,0.19715091,0.18929609,0.17999153,0.15124716,0.14698048,0.13797144,0.13629215,0.13075412,0.13293536,0.13240425,0.14988520,0.15704736,0.17070414,0.20167640,0.21941871,0.23153407,0.24376296,0.27811648,0.29140770,0.29432102,0.31426745,0.32440490,0.30527327,0.31847917,0.31380671,0.32168127,0.29346747,0.29355147,0.27909033,0.25221911,0.24095572,0.22076072,0.19847521,0.18981175,0.17279336,0.15840228,0.16788792,0.15651552,0.13491130,0.14809001,0.13190525,0.13428978,0.12803826,0.12494434,0.12630753,0.11427270,0.10741835,0.13178250,0.12901471,0.11010355,0.11633232,0.12594116,0.12225315,0.14267967,0.12605324,0.15182638,0.14190982,0.14796470,0.15836358,0.16832822,0.18462398,0.19488229,0.21175951,0.23108646,0.25774168,0.27714137,0.28296896,0.30205110,0.32017213,0.32877407,0.32854010,0.31954939,0.30985222,0.29863006,0.30979795,0.28542970,0.24793257,0.27288123,0.23849461,0.22590955,0.22622912,0.23132455,0.21935780,0.22109288,0.24516153,0.28025334,0.31108099,0.30851963,0.33306966,0.37349388,0.38144571,0.40649753,0.42947250,0.45236783,0.45965668,0.48968054,0.51389789,0.53236747,0.51076825,0.53062475,0.51731598,0.51823274,0.49072682,0.49538275,0.45966963,0.45261370,0.42907227,0.38043556,0.36680116,0.35000872,0.35621816,0.32113387,0.34241279,0.32197523,0.32453461,0.32352604,0.34492672,0.33856165,0.34023144,0.32681483,0.31357805,0.30187201,0.29047909,0.28219266,0.25630006,0.24202374,0.23127499,0.24001890,0.24478616,0.26493997,0.27120877,0.30527258,0.32580018,0.35260644,0.37179926,0.39626347,0.43640034,0.45453597,0.47629071,0.48863641,0.51707104,0.50747147,0.49574333,0.49602894,0.46952655,0.43602699,0.43027572,0.40214202,0.39045297,0.37419444,0.36833946,0.35663570,0.32653075,0.30448967,0.29117233,0.27157010,0.26478239,0.23444318,0.22272213,0.20984460,0.20546654,0.19361487,0.19775034,0.19451610,0.18993724,0.20021286,0.19644240,0.20430579,0.23119085,0.21343974,0.21801971,0.22161046,0.22448291,0.22183361,0.24271506,0.22598617,0.23699068,0.24158921,0.25384720,0.24827866,0.23958316,0.25428952,0.24256925
0.03425132,0.01976586,0.02549105,0.01502875,0.01089827,0.02441908,0.01741348,0.01382559,0.01579528,0.01387548,0.00404505,-0.00164287,0.00060451,0.00006022,-0.01211111,-0.00460916,-0.00065568,0.00057863,-0.00495674,0.00325822,0.00101845,0.00009776,0.00377361,0.00112663,0.01016858,0.01675719,0.02528514,0.01595105,0.02593153,0.02378834,0.01819549,0.01588834,0.01811237,0.00565465,0.01546231,0.00529717,0.01618714,0.01176494,0.01709191,0.02667703,0.02297331,0.01751649,0.01048369,0.02492767,0.02386535,0.01462831,0.01873128,0.02544463,0.01278136,0.01223898,0.01442534,0.02557428,0.01907126,0.01785443,0.00942671,0.02273757,0.02845905,0.02420597,0.01531502,0.02601728,0.02166427,0.02370778,0.02552474,0.01437498,0.02679666,0.01766371,0.02974164,0.02164161,0.02867348,0.02860688,0.02220697,0.02660240,0.03425089,0.02870093,0.03798765,0.04196456,0.05200350,0.05567216,0.06566406,0.08022380,0.10296260,0.13566028,0.16171453,0.18711460,0.23829381,0.27384193,0.31566321,0.38929471,0.42322350,0.44572899,0.50748771,0.52447483,0.52882539,0.54692274,0.53737899,0.54157671,0.52843510,0.50952670,0.50055978,0.47541914,0.42065849,0.36503622,0.32864461,0.28359831,0.25000404,0.19409180,0.16836579,0.13155788,0.11358042,0.10713092,0.09713030,0.07739699,0.09558870,0.06863533,0.09087461,0.09175044,0.09020325,0.09509323,0.08606412,0.07699656,0.08023570,0.07210365,0.06273848,0.05954049,0.06614513,0.05849945,0.06586740,0.06233251,0.07600565,0.08225063,0.08464616,0.10040842,0.11333252,0.10173818,0.10951042,0.12632195,0.12260985,0.12179359,0.12171098,0.12543149,0.12282073,0.11448378,0.10139420,0.10254395,0.09368444,0.09675736,0.09457112,0.09241188,0.09383158,0.09507074,0.11571173,0.13319904,0.15419121,0.17866510,0.21766614,0.22391518,0.24928018,0.23320796,0.22032299,0.18902540,0.16687008,0.13526702,0.11402353,0.10438482,0.09009220,0.08101180,0.07970159,0.08212686,0.08856285,0.07295169,0.08232243,0.08614209,0.09613161,0.09996221,0.10957285,0.12521491,0.13375321,0.16458934,0.17939042,0.22178069,0.25392773,0.29518569,0.32821995,0.37468218,0.42472066,0.45542785,0.48612738,0.47660750,0.52555951,0.50802155,0.49187465,0.45904242,0.44179218,0.39161064,0.37444667,0.30656322,0.29190803,0.25930708,0.22970820,0.21854556,0.18968354,0.17594803,0.17214438,0.17930862,0.19651257,0.21370910,0.21425837,0.23552725,0.26930617,0.29442695,0.33189730,0.35934538,0.37044428,0.42273917,0.45540312,0.48585614,0.49753931,0.50448579,0.51269576,0.52489280,0.48612257,0.45143450,0.43217228,0.41070725,0.35356114,0.32367840,0.29102014,0.25836168,0.22613510,0.21443599,0.20071060,0.20834752,0.17895069,0.20076628,0.18751309,0.19364694,0.18802934,0.19128867,0.17611298,0.17409063,0.16551199,0.14545609,0.14243091,0.14707179,0.14172902,0.15301884,0.14313222,0.15383040,0.17533005,0.21570478,0.24703392,0.27877575,0.32758138,0.35087267,0.38148791,0.41984630,0.44408767,0.44679215,0.42094767,0.40510771,0.40521754,0.38195903,0.37469385,0.35018824,0.33193035,0.34179981,0.36293013,0.35423558,0.33979968,0.32855418,0.29637573,0.29391567,0.25960313,0.22668896,0.19667743,0.16782154,0.15639766,0.13837155,0.12665050,0.12791559,0.13560380,0.12250456,0.13286032,0.13970316,0.15301296,0.14539904,0.14508720,0.16098898,0.16817569,0.18284390,0.17476015,0.18835410,0.19655800,0.20965088,0.21109041,0.21983430,0.23708706,0.22605191,0.24066568,0.23337033,0.22903325
0.01497469,0.01052740,0.00370095,0.00782330,-0.00499522,-0.00148890,-0.00629760,-0.00536974,-0.02044123,-0.01129461,-0.00901871,-0.00407263,-0.01913204,-0.00494432,-0.00961286,-0.00889856,-0.01699895,-0.00908801,-0.00979655,-0.01347531,-0.01162902,-0.00708817,-0.01072358,-0.00875687,-0.01295196,-0.00326449,0.00050192,-0.00563064,-0.00141944,-0.00170871,0.00397281,0.00168853,0.00013014,0.00167242,0.01236133,0.00754869,0.01874420,0.03004871,0.03393407,0.04526852,0.05216413,0.06140290,0.05462833,0.06876428,0.04923253,0.04929635,0.04058448,0.02302724,0.01433119,0.00979113,0.00994026,0.00243109,0.00966498,0.00569989,-0.00478913,0.00983099,0.00014064,0.01301210,0.00106523,0.00385903,-0.00240504,0.00119103,0.00516842,0.01189300,-0.01066336,0.00910708,0.00555653,0.00308267,-0.00238458,0.00843565,0.00121624,0.00646598,0.01944863,0.02760857,0.03025144,0.03618175,0.05460990,0.06019040,0.07854594,0.09833301,0.11094889,0.11656592,0.15516901,0.20296668,0.23685523,0.27935501,0.33442842,0.39167959,0.46151373,0.49644768,0.52658246,0.55068704,0.55266102,0.54685096,0.53073308,0.48117364,0.44576515,0.39421425,0.35035994,0.29763053,0.24518596,0.21128910,0.17076114,0.14120375,0.11709149,0.09193691,0.07912089,0.06039444,0.07025663,0.06923731,0.07190212,0.08101812,0.10549409,0.11310733,0.13570915,0.15130135,0.13906002,0.14201495,0.13521783,0.12496913,0.09743698,0.09106654,0.06538697,0.06555537,0.04175549,0.03173628,0.03211620,0.02844496,0.03167414,0.04073241,0.02347239,0.03927192,0.03813670,0.04408142,0.04903161,0.05860456,0.06402853,0.06876153,0.07093083,0.08262631,0.10113530,0.10811173,0.11707920,0.11960563,0.12767696,0.11684762,0.11611637,0.11944507,0.09728669,0.09207982,0.08900454,0.08442007,0.08309870,0.09723373,0.10549440,0.09144222,0.09235175,0.08855633,0.09243023,0.06440046,0.07200174,0.06531433,0.04111456,0.04484212,0.03881393,0.03794338,0.03835152,0.03399257,0.01839075,0.02903504,0.03004704,0.03769812,0.04670871,0.06328525,0.05771063,0.08153198,0.09593310,0.09798122,0.12935866,0.15472352,0.18418845,0.22181302,0.26966121,0.29544182,0.33269996,0.36400609,0.39439291,0.39714135,0.38846623,0.42038145,0.38737416,0.39461122,0.36770131,0.32084729,0.29731227,0.26132384,0.23532979,0.20445193,0.16138732,0.13531679,0.11399590,0.11183041,0.10420834,0.09204863,0.09211511,0.09066719,0.10383992,0.10449345,0.13197463,0.16556753,0.17470075,0.19929156,0.23707761,0.26706872,0.29454964,0.33480942,0.36954121,0.39448661,0.40163931,0.41636090,0.40978226,0.41089019,0.39293190,0.35713332,0.34001536,0.30928480,0.26216156,0.22624957,0.20124455,0.18386739,0.15057991,0.14116495,0.11614982,0.10485210,0.09971475,0.08811560,0.08464292,0.07339180,0.07166680,0.06552836,0.07511820,0.08026062,0.07422848,0.07460897,0.09757713,0.08530434,0.09650001,0.12350174,0.14670270,0.18304406,0.20298693,0.24436109,0.26152574,0.28435312,0.31529098,0.32751018,0.34540664,0.34613838,0.33298825,0.32554276,0.30288877,0.30261454,0.26414169,0.25666896,0.24614351,0.21671830,0.21913681,0.22314236,0.22755246,0.20334838,0.20614210,0.17503102,0.16818460,0.16166219,0.12925035,0.11216639,0.09406871,0.07789773,0.07466008,0.08247907,0.07887316,0.08412974,0.07469407,0.08298366,0.09314066,0.08788284,0.09040721,0.10593078,0.10370624,0.12351151,0.12293950,0.12685525,0.14501726,0.15043704,0.15018750,0.15799658,0.16850624,0.16742041,0.16740378,0.16970451,0.16073113
0.03923478,0.03694302,0.03557184,0.02429371,0.02777869,0.02192514,0.01689566,0.01755181,0.03102579,0.02853965,0.01947146,0.02373731,0.01996706,0.00543278,0.01700757,0.00748173,0.02573276,0.00743438,0.01427319,0.02071595,0.01301170,0.01512797,0.00994483,0.01375461,0.01230983,0.02101703,0.02564698,0.02684820,0.02497269,0.02160799,0.02701174,0.02484380,0.02983474,0.03514518,0.03432867,0.04252275,0.04116258,0.06037779,0.07107543,0.08022253,0.09513200,0.08848645,0.09124164,0.08579626,0.10334703,0.07492281,0.07459588,0.04478982,0.04760408,0.03944554,0.03472323,0.02225139,0.02882538,0.01932042,0.02491872,0.02716540,0.01889315,0.01452821,0.02935530,0.00499575,0.01469142,0.02638594,0.01458509,0.02342739,0.01882464,0.02027301,0.02494722,0.02139154,0.02170367,0.02567862,0.02496921,0.02747637,0.04073950,0.04437742,0.06240561,0.07266416,0.07337066,0.09711944,0.10209554,0.12602732,0.12830857,0.14322855,0.15287427,0.18753178,0.21836175,0.25761343,0.29783304,0.33552446,0.37359494,0.40230348,0.42659494,0.44458531,0.45161075,0.46308197,0.48069205,0.44909251,0.45772031,0.44305618,0.41948540,0.39782499,0.34972856,0.31881506,0.26843078,0.21871098,0.18799259,0.15520700,0.11141298,0.09179422,0.07066841,0.05763064,0.04447331,0.04297389,0.03250506,0.03037050,0.04494016,0.03866156,0.03980037,0.03262546,0.03254081,0.03709067,0.03176706,0.02247961,0.03844869,0.02707754,0.03345697,0.03933549,0.04058809,0.03059053,0.03945469,0.04140910,0.03985212,0.06108864,0.07654142,0.07185479,0.08089068,0.09018064,0.11663695,0.11775632,0.12483259,0.13062698,0.13692634,0.15041566,0.16385049,0.15907236,0.16656890,0.16197938,0.16317636,0.14184553,0.14337207,0.14136264,0.14685508,0.16922015,0.19696415,0.20611450,0.21951531,0.22065447,0.23203262,0.22563443,0.19069686,0.17484073,0.12475500,0.11524781,0.08091134,0.05917500,0.04900799,0.03527307,0.03439990,0.04533245,0.04107181,0.04501785,0.04704950,0.05705592,0.04830507,0.05516557,0.08154254,0.08022902,0.10079722,0.12675954,0.15560761,0.18101465,0.21571376,0.25171870,0.28984488,0.34341598,0.34933574,0.39354843,0.40546657,0.40911849,0.43432906,0.43369792,0.39683177,0.37190083,0.35591068,0.31582545,0.27122406,0.23959208,0.22060262,0.17064726,0.15450269,0.12458548,0.13447647,0.11185329,0.10727754,0.11580608,0.11535138,0.12343896,0.12933903,0.14908958,0.16826116,0.19678505,0.22786903,0.25156674,0.27912260,0.32640989,0.36037162,0.37665858,0.39577786,0.38957744,0.38699466,0.38235225,0.37094338,0.35761068,0.31505629,0.28782370,0.24786944,0.20445587,0.17462425,0.15086376,0.13157693,0.11055952,0.10599382,0.09644997,0.08765891,0.08663437,0.08143110,0.08475369,0.08334375,0.08332153,0.06955757,0.07398745,0.06451444,0.05959037,0.04484905,0.05924792,0.06733049,0.06453498,0.06834764,0.08857433,0.10948316,0.14359397,0.16307898,0.20338368,0.24920655,0.28142764,0.33813418,0.35143206,0.35114222,0.38901697,0.38061377,0.38472894,0.37694607,0.35846286,0.36995999,0.37892896,0.37814749,0.40384607,0.39609062,0.40036005,0.37630622,0.36956589,0.33103388,0.29162726,0.25417593,0.20975657,0.15311092,0.11330118,0.09260416,0.08340719,0.06729524,0.06136720,0.05645411,0.05074691,0.06646726,0.06424209,0.07252251,0.07396076,0.07830862,0.08776222,0.09232748,0.10267015,0.11439285,0.11787642,0.13022545,0.13615468,0.13341800,0.13058735,0.13598503,0.15040403,0.14673134,0.15288353,0.13916069
-0.01950101,-0.02395945,-0.01739491,-0.00439223,-0.00338853,-0.00210943,-0.00068928,-0.00831898,-0.00785796,-0.01796447,-0.02040528,-0.02284581,-0.02920312,-0.03270308,-0.03382092,-0.04810805,-0.03835927,-0.03249716,-0.04537785,-0.04094744,-0.03420682,-0.03916623,-0.03032689,-0.01606119,-0.01883712,-0.00451234,-0.00414791,0.01186773,0.01781963,0.00966889,-0.00129831,-0.00170169,-0.00345154,-0.00841604,0.00519716,0.02200139,0.04052847,0.06684662,0.09418250,0.12173128,0.12837457,0.14688636,0.17011737,0.15236687,0.15434944,0.11535748,0.08779150,0.04873765,0.02503253,0.00857812,-0.00953606,-0.02221239,-0.02606281,-0.02547904,-0.03363143,-0.02937773,-0.02978256,-0.03661392,-0.03467908,-0.01795223,-0.04192196,-0.03871458,-0.02634829,-0.03581987,-0.02513854,-0.03286517,-0.03459850,-0.03242642,-0.02767410,-0.02495890,-0.02091930,-0.01803895,-0.00102481,0.02727009,0.04535948,0.07305567,0.10597894,0.12891829,0.14109856,0.13348543,0.11877716,0.10065301,0.08639974,0.08603576,0.09577479,0.12201375,0.14234353,0.16040346,0.18316803,0.21581045,0.24995257,0.27260355,0.29965586,0.31626736,0.33866633,0.34776386,0.36863802,0.38572497,0.37693554,0.37844466,0.36739968,0.33579815,0.30657294,0.27590962,0.23148327,0.18230505,0.14590829,0.09927732,0.08587833,0.06241435,0.05249890,0.04480985,0.04504794,0.05011328,0.06438395,0.06799088,0.07705645,0.07125407,0.05743728,0.04415801,0.03232016,0.02184779,0.01639943,-0.00199065,0.01860985,0.01535324,0.02035315,0.02753298,0.03726579,0.05258732,0.07543752,0.09196834,0.12159234,0.15062727,0.17416435,0.20024626,0.24513169,0.26256162,0.27902231,0.30971429,0.33690539,0.32928190,0.35533100,0.34791646,0.33565805,0.29764944,0.27626076,0.26986073,0.23372169,0.21384427,0.18033477,0.18242906,0.16546364,0.16268376,0.16022738,0.14506357,0.13647865,0.12251477,0.09828094,0.08738944,0.05737715,0.03165807,0.02331999,0.01037733,0.00530728,0.00855974,-0.00886021,-0.00448065,-0.00566673,-0.00492418,-0.00041056,-0.00360163,-0.00010671,-0.00312448,0.00703399,0.00564927,0.01297529,0.01653669,0.02276099,0.02003021,0.03532875,0.04354082,0.05008571,0.06497449,0.06881283,0.07493617,0.09059379,0.08461709,0.09439171,0.08941068,0.08629894,0.08859067,0.08850334,0.06568548,0.07267594,0.06333255,0.05345171,0.06694438,0.06230032,0.07496294,0.08098968,0.11236593,0.13201953,0.13966276,0.17834831,0.21061028,0.24272412,0.29499015,0.31318923,0.34298239,0.37519523,0.42196469,0.43536261,0.46677140,0.49773094,0.50848794,0.51504819,0.50158886,0.49954243,0.48403111,0.45756804,0.42126834,0.39361452,0.35131211,0.30181505,0.27230874,0.25122036,0.22532591,0.20066411,0.19677356,0.19230104,0.18686998,0.22038056,0.22108402,0.21312479,0.22553421,0.21274484,0.20351659,0.19665436,0.18296033,0.15917510,0.13970442,0.11670708,0.10609044,0.10380211,0.10874177,0.10134498,0.13066295,0.14381970,0.18269771,0.21380984,0.26316962,0.31212361,0.35067615,0.43030983,0.44989159,0.49891727,0.54655494,0.54336852,0.54672124,0.57636075,0.56085479,0.56831145,0.54063553,0.51951332,0.50500999,0.46871060,0.48540211,0.46078757,0.44205736,0.40908027,0.35319291,0.29858388,0.21476324,0.19113854,0.14339445,0.09518053,0.07400290,0.04835364,0.04453194,0.03864895,0.04063224,0.03374698,0.03153284,0.03400704,0.03238848,0.03290247,0.03222338,0.02714672,0.04743881,0.04462098,0.04943786,0.03778709,0.04814986,0.04800921,0.04481905,0.06017837,0.05337754,0.04946295,0.05082366,0.05713028
0.02376238,0.01954527,0.00747082,0.00339238,0.01325152,0.01108762,0.00380326,0.00464869,-0.00501201,0.01774226,-0.00431968,-0.00103296,-0.00531183,-0.00696780,0.00049394,-0.00106647,0.00496288,0.00780457,-0.00421433,0.00370317,0.00068226,0.00216567,0.00183958,0.00282495,0.00507109,0.01385895,0.01300755,0.01579960,0.01637418,0.01796985,0.00735645,0.01339032,0.00888586,0.01346858,0.01757624,0.04137007,0.03339188,0.04098239,0.05452348,0.06894314,0.08390918,0.08450455,0.09282494,0.08789261,0.07471484,0.07940368,0.05307368,0.06136796,0.03265761,0.02163662,0.02557263,0.02145154,0.01670097,0.01672014,0.02808042,0.00696862,0.01524630,0.02256824,0.01516054,0.01647000,0.01792689,0.02532292,0.01827922,0.01715118,0.02428015,0.01238249,0.01541957,0.02866286,0.02126939,0.02636556,0.02477532,0.03354370,0.03667265,0.05104914,0.06404774,0.08179516,0.10026513,0.10764386,0.11359091,0.13109448,0.15283150,0.16191015,0.18860897,0.23429125,0.27483413,0.31338809,0.36200244,0.39946647,0.44923256,0.49452091,0.52997923,0.51838883,0.52716799,0.52026595,0.51082858,0.48310750,0.45830896,0.42432469,0.40708587,0.36393162,0.31918048,0.26807200,0.24907573,0.18621434,0.16640936,0.13995702,0.11915112,0.09523638,0.08781613,0.08686469,0.10256153,0.09693368,0.10450865,0.11823533,0.13198563,0.14358666,0.14188700,0.14104095,0.12309431,0.11356054,0.09306032,0.08377836,0.08658225,0.06573846,0.06624363,0.05786044,0.06638173,0.06669556,0.06410011,0.09060631,0.08203916,0.07694162,0.09938045,0.09806634,0.11422795,0.11758748,0.12212068,0.14931128,0.14762258,0.16907436,0.16691224,0.18440007,0.18767221,0.18732981,0.18486149,0.18072837,0.16023455,0.15688547,0.16194208,0.15166261,0.16519402,0.16905415,0.16680565,0.17853062,0.18752841,0.19428245,0.19635065,0.17035192,0.16075123,0.14445186,0.12943525,0.11245945,0.09424332,0.08553717,0.07171531,0.07546748,0.06776654,0.07494446,0.06957285,0.07565224,0.08926769,0.07487215,0.08581825,0.10447941,0.11159519,0.12788242,0.14854579,0.16238069,0.19681574,0.22035179,0.24064171,0.27992281,0.32223833,0.36136353,0.37304362,0.40276614,0.42586365,0.43655212,0.45007711,0.42678302,0.39806155,0.38672760,0.35148449,0.33552616,0.29359366,0.26820812,0.22560394,0.19677474,0.18181477,0.17399029,0.15939285,0.14649290,0.16114567,0.16274195,0.17020797,0.18063029,0.20142102,0.21573001,0.24747371,0.27228784,0.29911328,0.33854241,0.35456876,0.41193497,0.45460438,0.46654800,0.48269865,0.48897528,0.49636081,0.48751246,0.45981527,0.43953739,0.43771498,0.40613223,0.36359990,0.30507684,0.29443202,0.26793488,0.21368112,0.21704579,0.20130781,0.17860654,0.16819671,0.16053078,0.16811436,0.16041437,0.15841384,0.14118075,0.14640755,0.14341014,0.14377526,0.13199445,0.14845794,0.14377356,0.15494630,0.16348404,0.17387827,0.21702764,0.24585694,0.27579731,0.28461292,0.32971516,0.38940521,0.42486152,0.43003384,0.45350531,0.44885811,0.46741038,0.44275512,0.45230142,0.44113731,0.40946643,0.39537972,0.41633254,0.39755127,0.38443489,0.38981815,0.38236642,0.38097231,0.35191269,0.33459833,0.31234476,0.27137482,0.23600111,0.20747713,0.17445311,0.16381317,0.15257871,0.15295443,0.14511145,0.14528240,0.13983366,0.14935836,0.14525837,0.15847972,0.16423001,0.15983360,0.17900146,0.19166747,0.17320681,0.20102705,0.20131963,0.21556913,0.21149523,0.22565416,0.23030629,0.22438109,0.24184963,0.22355236,0.23472594,0.24007429
-0.00955144,-0.01012952,-0.01579898,-0.01161113,-0.00431906,0.00476364,-0.00166551,-0.00566124,-0.00136115,-0.01033695,-0.01807702,-0.02887821,-0.04741371,-0.03638176,-0.04803929,-0.04848976,-0.04947436,-0.04964304,-0.04944781,-0.04635931,-0.05069934,-0.03959072,-0.04079431,-0.04212081,-0.01747033,-0.01471520,0.00202107,-0.00570069,0.00913335,0.00750197,-0.00479568,-0.02291020,-0.02227723,-0.03351405,-0.02817431,-0.02272990,-0.01706390,-0.01738803,-0.01363117,-0.00325353,-0.00244020,0.00344101,0.01037800,0.00373030,0.00916720,0.00077132,-0.00795517,-0.01776042,-0.02970725,-0.03540337,-0.03559024,-0.03404352,-0.03999137,-0.04792890,-0.04922622,-0.04547704,-0.03698112,-0.04634513,-0.04156557,-0.05029910,-0.03375250,-0.04211181,-0.04356796,-0.04052438,-0.04621924,-0.04436765,-0.04519436,-0.04285227,-0.04344561,-0.03302494,-0.03866299,-0.03265621,-0.03476485,-0.02422649,-0.00679247,-0.00396777,0.00704078,0.00797440,0.03628517,0.05263538,0.04936746,0.07306537,0.09360384,0.11683716,0.16356444,0.19747337,0.23274914,0.28306965,0.31639296,0.34169172,0.36614733,0.37462394,0.37233760,0.37361438,0.33383267,0.35165911,0.32667390,0.32597939,0.32152671,0.31849756,0.29089871,0.30139015,0.28268917,0.23163560,0.21060425,0.17367089,0.12920687,0.09318656,0.07157879,0.05695630,0.03338260,0.02793934,0.02116282,0.03174191,0.03523247,0.04012797,0.04029093,0.03772230,0.02980654,0.02099801,0.02306422,0.00778716,-0.00297577,0.00905750,0.00290154,0.00827925,0.00719293,0.01556731,0.02776438,0.05348378,0.07240166,0.09454725,0.11652421,0.14052699,0.15286999,0.16395854,0.17059507,0.18529328,0.18952709,0.17564919,0.16397813,0.15741643,0.14898117,0.13382004,0.11185468,0.10210920,0.07672791,0.06410739,0.05139857,0.05453097,0.03761429,0.03150450,0.01859782,0.03668378,0.02714210,0.03665676,0.02780082,0.02632786,0.01670103,0.00419021,0.00356443,0.00375788,-0.00606927,-0.00819465,-0.01772667,-0.00894147,-0.01440256,-0.01160060,-0.01765470,-0.01159712,-0.00792758,-0.00975855,-0.00282103,0.00836987,0.01056304,0.03630975,0.04593794,0.06767986,0.09041260,0.11168775,0.15067284,0.17803362,0.19693098,0.24545237,0.25714595,0.29932723,0.32151201,0.33284109,0.33375698,0.32761587,0.31482732,0.29427624,0.28816223,0.26843091,0.22168439,0.19234637,0.17598516,0.14512689,0.13411812,0.14009393,0.13286666,0.14009578,0.14032737,0.16115995,0.19426743,0.22392979,0.24379105,0.28424705,0.30789421,0.31699197,0.33817453,0.34047502,0.36318471,0.34170284,0.35003078,0.34831660,0.33283819,0.31991298,0.31884223,0.30385103,0.26608658,0.24969583,0.22011187,0.19134363,0.17963455,0.15950596,0.15045900,0.14582304,0.13466739,0.15983406,0.16909480,0.18568862,0.20142934,0.22260088,0.22041021,0.21955003,0.23464023,0.22692785,0.22792767,0.19515759,0.17560722,0.15053892,0.12529564,0.10924049,0.08575721,0.07694331,0.07517053,0.06705085,0.08923329,0.08958237,0.11453289,0.13449076,0.16826645,0.19011249,0.21160571,0.23911184,0.27771168,0.27744110,0.30035121,0.29977265,0.30142759,0.29803409,0.27190317,0.24628627,0.22104730,0.20362000,0.19054234,0.17432825,0.16429729,0.13827532,0.13656297,0.10972609,0.09916603,0.07967104,0.06949483,0.06045295,0.03450106,0.03290797,0.02959412,0.03374929,0.03517693,0.04327703,0.04410390,0.04182597,0.04080136,0.05132462,0.06106194,0.06250686,0.07614179,0.07667027,0.08802560,0.07975075,0.10065266,0.10002167,0.10130059,0.10240877,0.11643531,0.10938842,0.11637621,0.12546351,0.12785583
0.00706726,0.01561153,0.02044893,0.02661893,0.03734213,0.03556106,0.03466092,0.02941677,0.02434896,0.02330271,0.00871562,0.00667619,0.00301819,-0.00083176,-0.00705973,-0.00320712,-0.00401629,-0.01712913,-0.01730436,-0.00279236,-0.01364982,-0.00149329,-0.00332063,0.01452698,0.01213716,0.03593989,0.04593374,0.04264753,0.04797243,0.04872807,0.03670448,0.03029749,0.02670093,0.01411042,0.01197228,0.02252642,0.02586392,0.03246946,0.03989570,0.05297767,0.06674226,0.05009806,0.05125259,0.05669988,0.04694790,0.04236076,0.03218143,0.02042886,0.02519924,0.01955372,0.00802389,-0.01043650,-0.00344682,0.00713744,0.01030186,0.00973037,0.00483959,-0.00030063,0.00962819,0.00513532,0.00144191,-0.01057490,0.00137104,0.00650398,0.00875888,0.01031595,0.01093272,0.01773302,0.01342552,0.00297635,0.01633106,0.02156935,0.02892087,0.02939592,0.04920899,0.05007426,0.06943768,0.07513163,0.07585478,0.08756239,0.08806739,0.09089214,0.09843170,0.12300919,0.14726497,0.19050529,0.21208798,0.25617982,0.29274327,0.30716339,0.34901888,0.35213958,0.40108019,0.39880290,0.40212020,0.40702043,0.44597436,0.42296606,0.43923070,0.44761157,0.41275850,0.39397629,0.34894649,0.32518480,0.25419044,0.21569093,0.18777316,0.15473944,0.12691772,0.11428632,0.12271889,0.10959084,0.14591080,0.14879894,0.15216445,0.16224024,0.15146366,0.12680493,0.11960130,0.10190486,0.09601419,0.08095909,0.07951367,0.06379841,0.04831157,0.05940098,0.06765611,0.08440553,0.11214817,0.13369576,0.15168400,0.17696506,0.18895091,0.21064928,0.22901442,0.24074826,0.25363125,0.25452286,0.24911104,0.24705527,0.23386344,0.21767801,0.20938507,0.19429354,0.19127758,0.15725895,0.15694756,0.14172524,0.13257628,0.12122362,0.12618408,0.12990315,0.13095509,0.15259548,0.14350533,0.14554190,0.14453376,0.13490721,0.11733804,0.10764430,0.08873876,0.08092163,0.06228226,0.05426284,0.03873773,0.04585375,0.04318747,0.04379643,0.04177733,0.04412639,0.05580484,0.05213058,0.05174260,0.05071884,0.05804734,0.07166758,0.07099766,0.08345721,0.07271670,0.09777832,0.10055590,0.10584371,0.13358998,0.12685035,0.13918893,0.13153534,0.14257346,0.13729321,0.14819473,0.14188783,0.14008807,0.13892442,0.13293631,0.12823548,0.13230548,0.13272193,0.12471339,0.14313704,0.14048925,0.14819662,0.16639045,0.20385709,0.22231501,0.26720176,0.30028162,0.33983823,0.37384411,0.39801447,0.44557636,0.46630439,0.53212070,0.52538677,0.56210817,0.59022944,0.60138285,0.61578363,0.61278996,0.58091785,0.57694251,0.56296772,0.51144786,0.48329433,0.44615298,0.41970940,0.38197663,0.33559531,0.30683211,0.31272556,0.28109472,0.28767095,0.28073611,0.30541889,0.30018212,0.29735949,0.32162233,0.30857262,0.31431330,0.28950372,0.26041422,0.25242995,0.22511035,0.21334767,0.18701455,0.17643442,0.18119696,0.16488326,0.18442826,0.22852893,0.25493330,0.29483670,0.31934272,0.36951631,0.39708233,0.43835532,0.48452623,0.51225140,0.48851302,0.52253565,0.50225156,0.48261180,0.47634470,0.43452858,0.41883510,0.39520195,0.36823527,0.34646045,0.34434619,0.31729629,0.30597396,0.28349957,0.25314091,0.22996993,0.18061639,0.15788879,0.14501773,0.12369095,0.11648196,0.11449887,0.09976329,0.08666587,0.09059818,0.08414602,0.08993225,0.09154382,0.08840862,0.09534928,0.10081217,0.11113971,0.10563327,0.12164784,0.11933795,0.11797773,0.11413617,0.11783497,0.10813871,0.11665143,0.12698810,0.11666343,0.12847621,0.11154221,0.11829401
0.02723403,0.03268097,0.03018399,0.02435118,0.02355871,0.01559377,0.02249334,0.00950787,0.00952634,-0.00226320,0.01213397,0.01684132,0.01786485,0.01707024,0.00320800,0.01603042,0.01228588,0.01241375,0.01534616,0.02330340,0.02393169,0.02204425,0.01595267,0.01935021,0.02632243,0.01484329,0.02742541,0.02837813,0.03096833,0.02677770,0.03388519,0.02596753,0.03079448,0.03371038,0.04305017,0.06360300,0.07104546,0.08625133,0.10288061,0.11732392,0.12982829,0.14059013,0.16180242,0.14677624,0.12772733,0.11447352,0.10711934,0.10456162,0.07823112,0.07023601,0.04190035,0.04487444,0.04215081,0.05579108,0.03630374,0.04245364,0.03388330,0.05469416,0.04908540,0.04631142,0.02811519,0.05019700,0.04225787,0.04811040,0.04029787,0.04651234,0.04880196,0.04405304,0.03915975,0.05644850,0.04605748,0.06187055,0.07542013,0.08312824,0.09556203,0.11382790,0.14758864,0.15916727,0.18583805,0.19911417,0.19403271,0.22802303,0.23397063,0.26425603,0.32267626,0.37814538,0.42703369,0.47561175,0.50272954,0.54967702,0.58836031,0.57327427,0.57883044,0.58044539,0.54953845,0.51476826,0.46511629,0.43647818,0.38354016,0.33420098,0.28241134,0.24818807,0.22209598,0.18011820,0.17287523,0.13364953,0.11881044,0.12136176,0.11243741,0.10960346,0.12063895,0.12504887,0.13160144,0.12648418,0.15085460,0.14952900,0.15076951,0.14945526,0.15744099,0.14149952,0.12462186,0.12348019,0.10794802,0.09837610,0.08977002,0.08879086,0.08086359,0.09443939,0.08949108,0.09064934,0.10695579,0.09918985,0.10021877,0.11457075,0.12553511,0.14066972,0.15755397,0.17826008,0.19204524,0.22178195,0.23905460,0.25916906,0.26865297,0.27249588,0.27144854,0.26818906,0.25844641,0.24117258,0.23137509,0.21904143,0.19039566,0.20969700,0.20764333,0.20292940,0.20199187,0.19507091,0.19108031,0.19072919,0.18108022,0.17148063,0.15103776,0.14783360,0.13168541,0.12243342,0.11399291,0.10946828,0.11295659,0.11261508,0.11261820,0.11572047,0.11307604,0.11712118,0.13434275,0.13743096,0.15932981,0.17214521,0.18427845,0.21326578,0.24936209,0.28457764,0.31933448,0.36624261,0.40275957,0.45837040,0.48866284,0.51903454,0.57483712,0.56671100,0.58336702,0.57323964,0.54327104,0.54112164,0.49948732,0.44771548,0.40642605,0.36867974,0.33897715,0.29196616,0.27288717,0.23514339,0.20606848,0.19752074,0.19746952,0.17628625,0.18625773,0.19340011,0.18014774,0.19825826,0.21774056,0.23065020,0.26715783,0.28398028,0.32459014,0.33583776,0.37846211,0.39666516,0.41797797,0.42825665,0.45296610,0.44712082,0.44881954,0.41237815,0.40997560,0.37774408,0.35707253,0.33666615,0.28916055,0.26998917,0.24903052,0.23625196,0.21943962,0.19514945,0.19225179,0.18205501,0.18589908,0.17349841,0.16733551,0.15709672,0.16309362,0.15848736,0.16445356,0.16140052,0.16741257,0.17105931,0.17604769,0.17333502,0.19240835,0.21511871,0.23835643,0.25801281,0.28497115,0.32516106,0.34534317,0.37119128,0.42369940,0.40972408,0.43178812,0.44430959,0.45185553,0.46666690,0.45635905,0.44552734,0.45472342,0.44044608,0.43897904,0.44325510,0.43802093,0.43993387,0.44457429,0.40952324,0.38862259,0.36114716,0.34894635,0.31604162,0.28813371,0.25378850,0.22172308,0.19519280,0.21116165,0.19337224,0.20001244,0.20081035,0.20508286,0.22210970,0.21693568,0.21759112,0.23093990,0.22713545,0.23809232,0.25089909,0.25532579,0.26537781,0.28092964,0.28362892,0.29907602,0.29035365,0.29860753,0.31966091,0.30867052,0.30924213,0.31220264
-0.02835120,-0.02324376,-0.02406699,-0.02550250,-0.03017609,-0.02722446,-0.01812408,-0.03105060,-0.03893384,-0.03485750,-0.03693340,-0.03813660,-0.03917851,-0.03845455,-0.04639037,-0.04442871,-0.03820210,-0.04583274,-0.04699944,-0.04311298,-0.04056888,-0.04799336,-0.04678800,-0.04211855,-0.03402037,-0.03790724,-0.02209387,-0.01590738,-0.00813064,-0.02610013,-0.01976478,-0.02516206,-0.02454850,-0.01987092,-0.01034013,0.00384867,0.01776527,0.04393124,0.07375150,0.09417124,0.11868524,0.12288924,0.13511030,0.13696106,0.12431775,0.10163784,0.07636896,0.04044323,0.02825118,0.00514630,-0.01526971,-0.01442517,-0.03507395,-0.04504844,-0.02713195,-0.04012043,-0.03840786,-0.03148893,-0.04492008,-0.04308136,-0.03238442,-0.04908055,-0.04601573,-0.03778837,-0.03730441,-0.04056423,-0.04978332,-0.03965639,-0.05194573,-0.03183572,-0.02977417,-0.03012101,-0.01409285,-0.00657551,0.01511219,0.04754471,0.07569394,0.10135984,0.11701263,0.11682365,0.12678420,0.11571366,0.10451430,0.10629049,0.11342829,0.14592063,0.17692643,0.20526058,0.24943987,0.28746940,0.31597433,0.34393892,0.35310400,0.37316573,0.37757741,0.36872571,0.35405027,0.34989468,0.31290586,0.29657467,0.26341260,0.24037389,0.20493954,0.16757429,0.13002041,0.10845788,0.07394532,0.05272406,0.03442618,0.02754546,0.01881866,0.02879691,0.04171794,0.04969100,0.06030626,0.07179021,0.07214778,0.06675860,0.07007448,0.04569345,0.04015984,0.01613001,0.00671091,0.00843486,-0.00339061,-0.02593455,-0.01319756,-0.02168191,-0.00913063,-0.00222993,-0.01063461,0.01621592,0.03176137,0.03461739,0.06191274,0.07578993,0.09205986,0.12602703,0.15460794,0.18007331,0.21191650,0.23178402,0.24941014,0.27419225,0.25800898,0.25694652,0.23247780,0.21944151,0.18935711,0.18157597,0.16181821,0.14339369,0.12392481,0.12469215,0.11433349,0.11869849,0.11701766,0.09162791,0.09255368,0.07233854,0.04844730,0.03233949,0.01425920,0.00455154,-0.01136054,-0.02048927,-0.01910066,-0.02819790,-0.03816968,-0.01718272,-0.01303871,-0.01568178,-0.01836932,-0.02223579,-0.01169627,0.00041810,0.00536176,0.01526581,0.01898804,0.03097280,0.04731378,0.07288822,0.09147262,0.10921152,0.12995011,0.12602071,0.15209386,0.16944563,0.15544777,0.17024924,0.15123140,0.14441909,0.13588403,0.11390603,0.11283820,0.08502001,0.07117320,0.06554700,0.04995613,0.03846702,0.03916624,0.03993102,0.04720028,0.05035810,0.04938190,0.08042470,0.08301055,0.10380824,0.14168023,0.16346346,0.20305555,0.23770544,0.26258594,0.32215371,0.33176688,0.35828276,0.40420161,0.40045818,0.42101784,0.40831092,0.39931670,0.40940385,0.36325689,0.33983722,0.32453494,0.25024784,0.22102630,0.18645572,0.15777507,0.11837501,0.10794163,0.09682336,0.08886581,0.07356749,0.07147848,0.07512217,0.07039422,0.06178450,0.04830048,0.04711906,0.04906656,0.04324378,0.04460555,0.03813541,0.03553436,0.04905929,0.06005919,0.05514205,0.09227034,0.11652811,0.15317634,0.20618132,0.24358411,0.28139351,0.32563633,0.33977343,0.38843384,0.42879187,0.43191561,0.44957753,0.45462125,0.44619533,0.44226860,0.42868886,0.41884416,0.41871816,0.40605872,0.40263152,0.37764798,0.38144574,0.34606415,0.32072841,0.27268050,0.21235836,0.16577532,0.11124039,0.07548603,0.05327946,0.02631217,0.01030153,0.01313654,0.00000878,-0.00622463,-0.00584776,-0.00693245,0.00592722,0.00219808,0.00525669,0.00412805,0.00926542,0.01051005,0.01396644,0.02493867,0.01226730,0.02725469,0.02583565,0.03798170,0.04525393,0.03079501,0.03653390,0.03642169
0.00941322,0.00497746,0.00191580,-0.00009546,-0.00009727,0.01782096,0.00681391,0.00574195,0.00677010,-0.00784703,-0.00195636,-0.00762974,-0.00606450,-0.00857332,-0.02252574,-0.01544196,-0.01266183,-0.02021427,-0.02704188,-0.00943427,-0.01359264,-0.00435649,-0.01079031,-0.00628271,-0.00645920,-0.00811709,0.00030728,0.00383810,-0.00093422,0.01015718,0.00255381,-0.00978287,-0.00519405,-0.00154984,-0.00189302,0.00740799,-0.00911755,-0.00440483,0.01621792,0.01735606,0.00805283,0.01646529,0.02415128,0.00888495,0.01363925,0.02359728,0.00848285,0.00632951,0.00353134,0.00180756,0.00552048,-0.00805263,0.00090442,-0.00532613,-0.00917723,-0.02232753,-0.00814650,-0.01304821,-0.00518121,-0.00702738,0.00027021,-0.00294305,-0.00940868,-0.00490705,-0.01208039,-0.00647982,-0.01361434,0.00351716,-0.00834690,-0.00716412,-0.00364669,-0.00408957,0.00270787,0.00003668,0.01514332,0.01420625,0.02275097,0.02868004,0.04309468,0.05166643,0.06133242,0.07219361,0.10626911,0.11757829,0.14571055,0.17829980,0.21869736,0.27963343,0.32282724,0.35855417,0.40584583,0.41692209,0.43942997,0.45251135,0.47907020,0.48770009,0.46890193,0.45165895,0.44859450,0.40533784,0.35326519,0.32142585,0.27911912,0.22818072,0.17951207,0.14082537,0.11209597,0.08722580,0.06989544,0.05074392,0.05513585,0.05591804,0.07433147,0.08369323,0.09885461,0.11090889,0.10900137,0.10491624,0.08064373,0.08817653,0.07050941,0.04631082,0.03993213,0.02567491,0.02052953,0.01715741,0.01620933,0.01435660,0.01471705,0.01419660,0.02046603,0.02836885,0.03634635,0.03268719,0.04780904,0.04294571,0.06421986,0.05597761,0.06620068,0.06874890,0.08757784,0.06222425,0.07589235,0.07179728,0.06003811,0.06591784,0.06555101,0.05999465,0.07083050,0.06725683,0.08799987,0.09899997,0.11354431,0.13693809,0.16402377,0.16661990,0.19309222,0.19533145,0.17072290,0.12962701,0.11572634,0.09426940,0.06286447,0.04279429,0.02994537,0.01043952,0.01319019,0.00995146,0.01274829,0.01011357,0.00951123,0.01712148,0.00814458,0.01126115,0.02647643,0.03312362,0.04605796,0.04596239,0.06461786,0.07940698,0.09928546,0.11890529,0.14633403,0.16910417,0.19699132,0.18760426,0.21606523,0.21944684,0.22444201,0.21070147,0.21416345,0.20099625,0.18413406,0.16783289,0.16980457,0.13974075,0.10582988,0.10888062,0.08178704,0.06884880,0.08005482,0.06195550,0.08256743,0.07862956,0.09137059,0.10412024,0.13025051,0.15901963,0.17659544,0.22199892,0.25747003,0.30143182,0.33701205,0.39175021,0.43800194,0.47566830,0.51934161,0.54380904,0.55206490,0.57061555,0.54285006,0.50951162,0.47854993,0.44365252,0.38410693,0.33780900,0.30417933,0.24472811,0.20611492,0.16953453,0.14638530,0.12013791,0.10511069,0.08534152,0.08788932,0.08992531,0.08193989,0.08276157,0.08441950,0.06600328,0.07070298,0.06219696,0.05974092,0.05318229,0.06382546,0.07810694,0.09015102,0.11414131,0.14168814,0.18415791,0.23461638,0.27881536,0.33206109,0.35992673,0.41634570,0.43623432,0.44369294,0.44917703,0.41698281,0.40540305,0.37658860,0.33957313,0.32554861,0.30538855,0.31803049,0.30165494,0.31068010,0.30163758,0.30008435,0.28472475,0.26045984,0.24266273,0.19540030,0.16221129,0.13566562,0.09938438,0.07515262,0.04627952,0.04073391,0.03866459,0.04641691,0.03369612,0.04010972,0.03142597,0.03612752,0.04696449,0.04561726,0.04434072,0.04771570,0.05516822,0.05139405,0.06179550,0.07183527,0.06636191,0.06857696,0.08404852,0.08699567,0.07492011,0.07884437,0.08258107,0.08636365
0.03456299,0.03435644,0.03493945,0.03785414,0.03657375,0.03968843,0.02788382,0.03616288,0.03743643,0.03312199,0.03408656,0.01876066,0.01669006,0.00421734,-0.00134498,0.00200892,0.00543555,0.00701913,0.00495429,0.00983244,0.00284369,0.00818929,0.01175606,0.01200131,0.01702634,0.03545771,0.04071844,0.03945308,0.05962712,0.04390049,0.04614932,0.02662543,0.01910734,0.02641133,0.02842239,0.03247056,0.04539371,0.05330397,0.07596823,0.07839683,0.09222604,0.10678772,0.11496905,0.10387087,0.09490736,0.08184361,0.07360185,0.05595088,0.04642494,0.02438558,0.01507704,0.01742157,0.01138718,0.01190471,-0.00204135,0.00393677,-0.00480524,0.00737046,0.00416736,0.01269108,0.00612375,0.00649805,0.01083971,0.01270084,0.00995401,0.01421403,0.00199433,0.00948734,0.00170682,0.00516513,0.01529164,0.02158880,0.02169604,0.03128221,0.04026985,0.06805446,0.08020100,0.09126669,0.09889448,0.12105120,0.11428996,0.11517782,0.12761439,0.15124098,0.16191923,0.19901348,0.22116151,0.24380431,0.28829981,0.31357858,0.32546317,0.33786032,0.34002778,0.33828332,0.33990554,0.34183048,0.33537477,0.32743853,0.32901068,0.32056063,0.32140382,0.30621707,0.27766418,0.24579708,0.21456878,0.18620332,0.14937202,0.11902872,0.09193608,0.08146096,0.04890833,0.04238044,0.04419911,0.05097583,0.06230562,0.05001631,0.05867463,0.05031320,0.05288764,0.04411044,0.03187729,0.02889996,0.03086992,0.02779685,0.02791888,0.02633776,0.03261484,0.04753498,0.04281230,0.06980952,0.08376508,0.10390069,0.11414668,0.13460268,0.15489313,0.17566950,0.19259351,0.19582589,0.23076955,0.22890394,0.24053302,0.23474944,0.22671931,0.23677453,0.22390054,0.20051052,0.18836028,0.17702314,0.15908282,0.12739995,0.13316210,0.11555019,0.10800039,0.09782371,0.09911146,0.09666010,0.09813371,0.08027032,0.09104357,0.06860891,0.04731864,0.04842981,0.04053513,0.03132268,0.02650840,0.02038316,0.02484102,0.02384976,0.00839418,0.01519765,0.01451307,0.02460484,0.02199969,0.03009345,0.03687177,0.05671865,0.06554037,0.07217773,0.08965617,0.11710028,0.14911434,0.16143747,0.19816586,0.20669808,0.25144153,0.26890766,0.28467132,0.28931597,0.29410122,0.32313176,0.29933232,0.26474177,0.26985195,0.23870476,0.20983815,0.20267836,0.16856047,0.14182699,0.13925822,0.12303079,0.12218286,0.13230602,0.12942332,0.15025355,0.16710852,0.18693291,0.21053443,0.23753872,0.24999221,0.27457833,0.28128871,0.29789218,0.32283428,0.34004803,0.32445167,0.33009640,0.33179615,0.31081633,0.31052927,0.28734322,0.26990705,0.25589840,0.22315650,0.20013355,0.18494125,0.16570423,0.13807871,0.12930588,0.13891519,0.13087590,0.15372739,0.15503038,0.16237780,0.17439097,0.18435931,0.18767128,0.19553492,0.17328289,0.18226361,0.16696774,0.13395333,0.13280390,0.10800775,0.10689642,0.08112243,0.07762031,0.06653091,0.07572644,0.07552006,0.09419471,0.10518801,0.12500516,0.15754316,0.18002255,0.20746305,0.23219888,0.26337826,0.29418071,0.32359242,0.34829466,0.35724564,0.33867077,0.34271965,0.34596872,0.30895735,0.28593832,0.29727692,0.26643337,0.25176508,0.24379898,0.22330956,0.21106228,0.18361665,0.14944313,0.10975222,0.08008378,0.07306072,0.05557752,0.03697312,0.03449964,0.03796495,0.03371225,0.02208036,0.03346049,0.04421770,0.04514743,0.04582378,0.04669145,0.05823245,0.05840851,0.07600139,0.06665530,0.08422135,0.07193231,0.09377859,0.07851828,0.10272994,0.09771831,0.10521236,0.10403483,0.10575800
0.03733175,0.03830096,0.03252907,0.03116325,0.03331308,0.02367513,0.03323452,0.02264513,0.02090922,0.02844448,0.03526449,0.02255213,0.02306169,0.02170536,0.01871865,0.01755043,0.02498987,0.02167047,0.01088189,0.02079023,0.00792829,0.02010790,0.01740868,0.02843473,0.02991029,0.02290126,0.03475383,0.04262121,0.03966493,0.04979908,0.03570236,0.04818805,0.03951671,0.03971898,0.04766704,0.04500678,0.05416968,0.06744536,0.07665947,0.09747450,0.11758673,0.11218085,0.11578544,0.11185873,0.11160442,0.09885779,0.08858734,0.07328294,0.07465133,0.07119736,0.05303110,0.04921704,0.04105394,0.03195947,0.03699842,0.03823018,0.03532562,0.03702927,0.03467944,0.05023380,0.03696515,0.03550608,0.03701276,0.03766209,0.03664168,0.02828795,0.04412384,0.04728481,0.03764735,0.03667575,0.03787248,0.05557070,0.06008864,0.05931479,0.06393999,0.07856342,0.08896475,0.10865083,0.12854278,0.13434689,0.14767070,0.13768600,0.15334604,0.16859496,0.17927943,0.20806499,0.23964196,0.26715326,0.30540166,0.34077901,0.34731544,0.36458258,0.35806394,0.39053505,0.37195071,0.35352332,0.34021155,0.33387641,0.31285826,0.28301217,0.28333500,0.25032347,0.23004797,0.20336115,0.17354658,0.15319716,0.13199893,0.11532362,0.10045139,0.09984501,0.10077844,0.08466068,0.09172458,0.08350387,0.09877098,0.09725578,0.09122603,0.10544637,0.09848638,0.09618943,0.09084541,0.08555480,0.08035371,0.06739226,0.07014948,0.06141320,0.06708023,0.07430510,0.07675230,0.07715226,0.07859639,0.10348556,0.09863169,0.11654509,0.11546171,0.12889871,0.13747137,0.15217071,0.16689258,0.16709252,0.17936741,0.19727164,0.21464830,0.20740153,0.21305259,0.21151407,0.19103074,0.18133635,0.19220481,0.17774925,0.15040972,0.15844547,0.15466804,0.14260118,0.14223717,0.14269434,0.15964488,0.15961344,0.14323788,0.13838332,0.12583970,0.11338143,0.11218953,0.09246394,0.08694006,0.07603533,0.06812327,0.08194690,0.08060830,0.08453048,0.08625909,0.07767046,0.07808099,0.10522730,0.09195791,0.10934846,0.12171671,0.13056646,0.15249609,0.15740326,0.17191008,0.20419101,0.23526663,0.25135678,0.26615692,0.29257138,0.31923244,0.32117944,0.35225448,0.34714979,0.34484138,0.32447859,0.31505853,0.29286540,0.27071415,0.25004064,0.22304989,0.20386324,0.18426010,0.17580835,0.15947652,0.16035312,0.15301470,0.14438312,0.15678759,0.15868632,0.17594994,0.17500719,0.18836804,0.21118762,0.24212415,0.23035804,0.25999049,0.27564832,0.31096199,0.31891777,0.31797330,0.32771446,0.34080873,0.33510798,0.34046635,0.31188534,0.29972269,0.28630801,0.28302456,0.24705090,0.23562368,0.19847122,0.19723909,0.19521505,0.17825067,0.16809773,0.15899957,0.16078624,0.16067995,0.16792763,0.16642582,0.17236822,0.15649889,0.15235413,0.14704464,0.14761480,0.13636128,0.14010743,0.14152315,0.14020524,0.14209876,0.14421584,0.14627246,0.15889000,0.17598739,0.19987362,0.23772994,0.23432608,0.26858312,0.28273557,0.30528446,0.34578696,0.33733678,0.34526508,0.36082483,0.36710641,0.34740553,0.34490435,0.34047355,0.35133119,0.33030926,0.32527049,0.31656570,0.30443910,0.30501917,0.29451215,0.26275553,0.24044500,0.21825868,0.19662354,0.16485680,0.15148704,0.14431000,0.13206067,0.12509730,0.13865291,0.12440966,0.13087661,0.13765462,0.13893413,0.14652402,0.15280619,0.14954171,0.14522086,0.15739273,0.16317226,0.15906488,0.16972860,0.16414364,0.17738760,0.18778147,0.18467276,0.19161738,0.19764490,0.20216285
0.02784780,0.02461597,0.02455473,0.02808417,0.01602190,0.02658490,0.02511564,0.02070032,0.01826056,0.03090026,0.02213418,0.02483612,0.01413802,0.01375080,0.01822645,0.02213154,0.00857827,0.02262900,0.01896001,0.02686864,0.02061562,0.02427374,0.02357063,0.03299788,0.02324573,0.02038152,0.02301550,0.03176983,0.03993839,0.04010310,0.03530302,0.02797903,0.02798862,0.04095835,0.03697955,0.04834300,0.04571570,0.06610674,0.07375673,0.08396460,0.11215836,0.10586190,0.10895764,0.11090487,0.09793564,0.08982438,0.08209686,0.06733664,0.05879670,0.04870898,0.04443485,0.03297505,0.02706337,0.02862829,0.02615051,0.02530336,0.02093654,0.01229635,0.02278084,0.03217057,0.02179924,0.02791785,0.02437808,0.01958221,0.02436943,0.02255076,0.01847806,0.02745080,0.02256320,0.02620837,0.03284088,0.03930486,0.04373969,0.04480352,0.06330228,0.06669054,0.09025632,0.10857702,0.12207245,0.12271462,0.12290269,0.12488468,0.13629920,0.15934479,0.16807488,0.20478153,0.25426943,0.29937608,0.35682971,0.40259657,0.44430825,0.46608215,0.47749609,0.49403969,0.48606599,0.47857140,0.46617305,0.44360786,0.39490704,0.36430721,0.32921830,0.27658308,0.23582716,0.21253389,0.16976509,0.14457487,0.12089304,0.11695274,0.10967105,0.11339431,0.12792699,0.15062128,0.18052173,0.19633009,0.22240801,0.24623644,0.26271237,0.24521686,0.25168842,0.22118237,0.18212371,0.16376003,0.12508618,0.10005492,0.07279331,0.06978178,0.05904834,0.05672872,0.04712626,0.05995150,0.06213887,0.05834302,0.07448742,0.08300233,0.08930681,0.09011942,0.10647243,0.13490846,0.12770469,0.16160817,0.16964487,0.18577606,0.18052767,0.18648665,0.18765097,0.19681293,0.18011850,0.17389035,0.15928459,0.15503135,0.13201387,0.13690266,0.13918013,0.14271802,0.13712647,0.12932782,0.13957498,0.12000559,0.12208381,0.11286641,0.08489785,0.08572276,0.06626263,0.05747215,0.05729547,0.04441780,0.04672157,0.04593524,0.04656166,0.04556939,0.03515714,0.05127140,0.04586946,0.04099164,0.04457259,0.05140165,0.05131931,0.05833506,0.05371602,0.06125827,0.06975409,0.06879500,0.09165374,0.09125624,0.10143443,0.11590920,0.10058478,0.10405659,0.10251299,0.11454017,0.10948254,0.10248430,0.10188386,0.09106972,0.08461909,0.08867854,0.08123092,0.07990051,0.07188145,0.07679431,0.08941585,0.08741265,0.09273602,0.10033316,0.10728369,0.14449348,0.14257502,0.16125247,0.19796358,0.23482983,0.27721181,0.32373080,0.35764321,0.43514259,0.48819258,0.53204708,0.57743166,0.60633362,0.63523146,0.67639593,0.64361464,0.62987581,0.60742972,0.58547230,0.52274192,0.47576298,0.40003087,0.36634230,0.32415658,0.27143419,0.24213299,0.20997352,0.18649647,0.17608329,0.14395506,0.13565841,0.12241038,0.12106539,0.12306869,0.10592782,0.10340473,0.10168069,0.10946315,0.11654664,0.12067637,0.14141595,0.17235779,0.18826632,0.23832781,0.26201163,0.33510850,0.36762017,0.40470770,0.46633280,0.48499660,0.51839179,0.50875696,0.53766469,0.49769323,0.48322661,0.45068254,0.43062574,0.41190312,0.37547269,0.36494298,0.33576793,0.31937324,0.32723347,0.31484561,0.29205458,0.28231156,0.25416080,0.23057516,0.20387282,0.16948823,0.13686849,0.11712482,0.09408336,0.09775298,0.07694943,0.08370031,0.06150633,0.06792273,0.07472186,0.06294947,0.07216025,0.06754816,0.06859002,0.07289483,0.06762750,0.07431196,0.06694819,0.08148205,0.07984558,0.08895439,0.08451323,0.07396799,0.08528079,0.08064820,0.07843007,0.09056303
0.01375229,0.00720761,0.01230370,-0.00222707,0.01044274,0.01123937,0.01518737,0.01484701,0.01263477,0.00330631,0.00196999,-0.00243269,0.01119210,0.00616121,-0.00379745,0.00497159,-0.00841575,0.01485147,0.00370856,0.00899641,0.00738604,0.00151904,0.00334788,0.00552841,0.01313889,0.02707621,0.02545605,0.02974444,0.03264831,0.03006256,0.03403816,0.02753372,0.02747516,0.03690987,0.04084102,0.03590912,0.04912251,0.07794672,0.08770402,0.09908243,0.11289924,0.11870321,0.12129907,0.12228035,0.11428067,0.11207406,0.09202303,0.06771205,0.05031658,0.04563874,0.03797906,0.03519751,0.03315421,0.03073872,0.02504163,0.02600195,0.02723183,0.02763906,0.02889646,0.02913340,0.03501024,0.04024700,0.02485643,0.03135539,0.02812174,0.03187926,0.03628208,0.03661497,0.04146863,0.03900840,0.04469344,0.04731303,0.06659443,0.07180059,0.08222206,0.09770573,0.11842031,0.14006281,0.15757395,0.14977123,0.14364009,0.15006175,0.14847255,0.17298680,0.20368354,0.22202564,0.24557999,0.28356302,0.31995858,0.35592870,0.38680162,0.40485842,0.43929913,0.44804800,0.47403973,0.48964242,0.48757446,0.46394806,0.45119483,0.45194657,0.41467512,0.36272944,0.32092429,0.28587685,0.24569101,0.20253826,0.17187080,0.15576975,0.12732615,0.10638205,0.11969766,0.11886648,0.14148196,0.15022047,0.14933126,0.15526972,0.15697768,0.15370898,0.14160072,0.13312987,0.11892476,0.10740378,0.10976629,0.09216416,0.09318295,0.08255235,0.09236217,0.08910828,0.09237405,0.10887853,0.11571734,0.14229338,0.13756807,0.15066410,0.16675616,0.17775015,0.19263960,0.22115270,0.23230834,0.25131628,0.24852858,0.25171901,0.27102063,0.27369121,0.26798198,0.25224007,0.24464469,0.24931610,0.22032021,0.22109973,0.21742720,0.22917226,0.23723171,0.25056962,0.26011870,0.25287053,0.26555088,0.24330078,0.24097227,0.20386299,0.18497946,0.16101108,0.13424977,0.13000583,0.10910294,0.10561927,0.10356062,0.10641541,0.09659272,0.09839494,0.10139021,0.10774988,0.10973977,0.10227588,0.11576831,0.11761631,0.13948522,0.14015250,0.15968650,0.17510446,0.18763487,0.20468552,0.22593356,0.23346829,0.24317617,0.26106502,0.27888862,0.27920420,0.26911892,0.27705327,0.26132383,0.25781973,0.25584251,0.24561556,0.21665689,0.20202296,0.19093034,0.18676178,0.17387565,0.17613652,0.17788916,0.19307187,0.19442544,0.20553492,0.21738530,0.25472433,0.28703582,0.30483930,0.33067111,0.37610200,0.41287470,0.44699035,0.48837031,0.52630281,0.53124255,0.58137502,0.60706472,0.60749300,0.60367817,0.60124547,0.57852259,0.56007553,0.51006440,0.47819319,0.43851268,0.40208092,0.35690057,0.33319195,0.28561845,0.26942168,0.27217849,0.25135431,0.24774839,0.23443850,0.23705295,0.24352480,0.24889791,0.23791900,0.21197212,0.20634488,0.20058236,0.19920544,0.18602280,0.18089295,0.20381324,0.20607845,0.21954725,0.25142312,0.28867079,0.31134932,0.38137328,0.40925325,0.45145740,0.49261592,0.52961329,0.56534355,0.57117155,0.58320891,0.58841901,0.56947690,0.55920467,0.56329911,0.55804528,0.52959874,0.50709246,0.53526498,0.51699525,0.51193577,0.51313179,0.48682545,0.43885225,0.40334272,0.35560502,0.30894604,0.27474884,0.24187937,0.22149530,0.18243506,0.18677581,0.17535657,0.16586403,0.16233243,0.17701756,0.16348079,0.16948322,0.18127455,0.16743181,0.18260433,0.18842917,0.19177997,0.18325172,0.19193359,0.18140132,0.19927589,0.20110414,0.19797586,0.22002661,0.21610682,0.21439842,0.20973548,0.21535298
-0.00502744,0.00098336,0.00704283,0.00256436,0.00306867,0.00838146,0.01164109,-0.00172861,0.00118723,0.00106511,-0.01546900,-0.00255744,-0.01373745,-0.01531373,-0.01760818,-0.02245818,-0.01883573,-0.02038684,-0.02325773,-0.02702869,-0.01960450,-0.01690547,-0.01486532,-0.01395766,-0.00943781,0.00194851,0.00578163,0.01585336,0.02061820,0.01818421,0.01794133,0.01093910,0.00948723,0.01326801,0.00798890,0.02075436,0.02746626,0.03389923,0.06553884,0.07475444,0.10354686,0.10453393,0.10978386,0.09954940,0.09290566,0.07528979,0.06070907,0.04658429,0.03495042,0.02439857,0.01200473,0.00633786,0.00698243,-0.00731905,-0.00553477,-0.00659109,-0.00061677,-0.01364292,-0.00054177,-0.00364350,-0.00615982,0.00392972,0.00500975,-0.00362460,-0.00328371,-0.00834226,-0.01021606,0.00188867,-0.00053914,-0.00081242,0.00692355,0.00088866,0.01604382,0.02632656,0.04668887,0.07257104,0.07975096,0.09607452,0.12266835,0.10614905,0.11446754,0.10860584,0.11161272,0.11737248,0.12875492,0.15773043,0.19067020,0.22306479,0.23459724,0.28007627,0.30906366,0.31562851,0.33722403,0.35957901,0.36027801,0.37738655,0.39901166,0.40094673,0.39459482,0.38434031,0.37280526,0.34291894,0.30885873,0.27892281,0.23533683,0.19786663,0.15527696,0.13157962,0.09313166,0.08092098,0.08880160,0.07012061,0.06778144,0.07611893,0.06844735,0.07994194,0.07393499,0.09054953,0.07943283,0.07389363,0.05707466,0.05232576,0.05282552,0.03420274,0.05551113,0.04059198,0.05061859,0.04835354,0.06629282,0.07698049,0.08992703,0.09477840,0.11325052,0.13256953,0.16403911,0.18074948,0.19071670,0.19422284,0.23009096,0.24561269,0.24333590,0.25298963,0.25435318,0.25122660,0.25990340,0.24312313,0.23242285,0.21652683,0.19344983,0.17099949,0.18711541,0.17590457,0.17258345,0.18554548,0.19303435,0.20465934,0.19429555,0.17804608,0.15628428,0.14555970,0.12141666,0.09659115,0.07919565,0.06683824,0.05244617,0.05015464,0.04439161,0.04280848,0.03889779,0.04884012,0.04510106,0.04641263,0.05383947,0.05847314,0.06403222,0.06154261,0.06751212,0.06548663,0.09733328,0.11629065,0.12924394,0.14659873,0.16146367,0.17660346,0.19857939,0.20894032,0.21690004,0.21446546,0.23841058,0.22436366,0.22285974,0.21543467,0.22161216,0.18490853,0.17686471,0.15455290,0.15668334,0.13991313,0.13692663,0.13632148,0.14524893,0.14015816,0.15686691,0.18254558,0.19079841,0.21907575,0.24280942,0.26563452,0.30281546,0.33099101,0.36107924,0.38062518,0.41140038,0.43209932,0.45651987,0.49825770,0.49658229,0.50784348,0.49220550,0.47063702,0.43935054,0.43947454,0.39994522,0.36778997,0.34263578,0.29784128,0.27330715,0.23122780,0.21292131,0.21195434,0.20810664,0.19091568,0.21378849,0.21711468,0.21836633,0.22982195,0.22050411,0.20528211,0.21054014,0.19718029,0.19657105,0.15866511,0.16737409,0.14307484,0.14513056,0.13750820,0.13693862,0.16770117,0.17745423,0.21402504,0.24441745,0.27332386,0.30805451,0.34710785,0.39278459,0.41708889,0.46600853,0.48810622,0.51977010,0.50907028,0.51026927,0.50938015,0.50203468,0.48808651,0.46450025,0.46724499,0.45914085,0.45232151,0.44328463,0.40836198,0.38375538,0.35943173,0.31787851,0.27742704,0.21783703,0.18328833,0.15383330,0.12503502,0.11764135,0.11126798,0.11155063,0.10403729,0.09738735,0.10930585,0.08995097,0.11015260,0.11429116,0.12064158,0.13036055,0.11842475,0.13410212,0.13233413,0.13221245,0.13632514,0.12745855,0.13387713,0.14977921,0.13889622,0.14384150,0.14646021,0.14152904
-0.01563172,-0.00654209,-0.00895426,0.00138150,-0.00312893,0.00374291,0.01284406,0.00073878,0.00163321,0.00084237,0.00052203,-0.01331872,-0.01474019,-0.01786883,-0.02670439,-0.01819631,-0.01922354,-0.01468881,-0.02380021,-0.02711419,-0.01678652,-0.01541582,-0.01673360,-0.01293136,-0.00881688,-0.00412734,-0.00742742,0.00510528,0.01212181,0.01970644,0.00683606,0.01242189,0.00513979,0.02053353,0.01695701,0.04005011,0.06170777,0.09568756,0.11839130,0.16747838,0.19594759,0.22474457,0.24147387,0.24125651,0.20075525,0.19961204,0.16257211,0.13520853,0.09530365,0.06062905,0.04564724,0.01428039,0.00456230,-0.00333869,-0.01483164,-0.01173511,-0.01936082,-0.02230446,-0.01781800,-0.01505112,-0.01362346,-0.01456835,-0.01292603,-0.02679136,-0.02038546,-0.01905676,-0.01285606,-0.01495300,-0.00924488,-0.02214984,-0.01245988,-0.00062489,0.01841944,0.02967791,0.05623912,0.09272082,0.12351423,0.16509587,0.17950461,0.18749494,0.17193259,0.13696400,0.10078974,0.07521538,0.05832535,0.05331141,0.05587178,0.05437251,0.06893920,0.08437138,0.10280727,0.13239594,0.16023873,0.18044743,0.20580044,0.23598910,0.27278711,0.29275969,0.27911750,0.31183607,0.31201059,0.31271807,0.27473695,0.24467274,0.22229728,0.17848388,0.14313449,0.11528622,0.07505443,0.04505297,0.04265909,0.03039540,0.02135108,0.03678065,0.02470380,0.03047533,0.02629470,0.03298714,0.02406492,0.03263189,0.02854799,0.00751567,0.01266656,0.01169911,0.00472600,0.00480912,0.01518699,0.01333106,0.01805476,0.03958160,0.05739089,0.05651745,0.08377604,0.10662546,0.12622235,0.15674427,0.20231509,0.23369495,0.26995401,0.31449019,0.33550514,0.37068553,0.39432498,0.43184223,0.41845117,0.40435838,0.39339671,0.35856038,0.31554959,0.28942027,0.24468025,0.21871070,0.21457858,0.18006624,0.17837917,0.16632831,0.15871351,0.15022687,0.13346577,0.11110975,0.07811451,0.06371027,0.03500760,0.02195244,0.01099184,-0.00241440,-0.00326191,-0.01075641,-0.01480853,-0.01206469,-0.01456540,-0.01851080,-0.01602313,-0.01426276,-0.00801625,-0.00897167,-0.01221070,-0.01177627,-0.01127246,-0.00017260,-0.00105602,-0.00421412,-0.00926329,0.00096100,0.00932212,0.01175008,0.01071233,0.00984788,0.02253941,0.01880000,0.00306709,0.01080635,0.01468616,0.00569676,0.01429914,0.01555570,0.01471375,0.00896591,0.02388239,0.03263846,0.03540093,0.04789942,0.05498055,0.08357963,0.08828929,0.11500893,0.14310796,0.15762487,0.19512808,0.21900791,0.24606214,0.27241330,0.29831662,0.32559472,0.34057298,0.37126561,0.37109401,0.38094427,0.38024737,0.37008271,0.36286969,0.33052834,0.32216896,0.26900023,0.24409483,0.20506628,0.16771104,0.15094294,0.14008764,0.13752332,0.11402611,0.12620057,0.11994385,0.12495364,0.12758019,0.14156034,0.14328367,0.13414788,0.13043444,0.11253074,0.11290460,0.09950627,0.07415340,0.06710945,0.05948363,0.05688344,0.06014522,0.06489529,0.06719799,0.07970403,0.12029257,0.14451310,0.17918642,0.21554783,0.26364052,0.31876926,0.37106019,0.41086544,0.46426149,0.51020028,0.52178273,0.58529839,0.57197576,0.58166805,0.54693510,0.56791589,0.53824543,0.54753994,0.51570810,0.50777108,0.48319546,0.45331284,0.40486310,0.33740423,0.26942074,0.20122268,0.14828242,0.09182740,0.05342158,0.04217318,0.00201995,0.00267147,0.00202292,-0.00414063,-0.00591794,-0.00468362,-0.00043083,-0.00753000,-0.00545114,-0.00688415,-0.00434509,-0.01003123,-0.00488676,-0.00248512,-0.01080920,0.00787509,-0.00214419,-0.00407282,-0.00225550,-0.00450200,-0.00398944
-0.00765572,0.00269204,0.00454570,0.00702898,0.02451430,0.02410891,0.02039514,0.02141733,0.01344861,0.00757996,0.00400619,-0.00171215,-0.00469076,-0.01158938,-0.01344463,-0.01766790,-0.01642190,-0.02185203,-0.01560508,-0.01095001,-0.01841810,-0.01777248,-0.00314720,0.00159088,0.00603665,0.02513120,0.03056392,0.03270390,0.04264580,0.04538164,0.02728247,0.02711705,0.01431765,-0.00000752,-0.00330602,0.01504122,0.01044275,0.01111134,0.01828452,0.02655404,0.01543592,0.03280870,0.03271618,0.04136140,0.02420173,0.02908503,0.01448477,0.01308290,0.00966934,0.00248407,0.00603993,0.00300169,-0.00606461,0.00850681,-0.00136014,0.00191338,0.00222156,-0.01279634,0.00361594,0.00583516,-0.00066793,-0.00127904,-0.00814726,0.00429253,0.00648602,0.00549518,0.00061410,0.01105265,-0.00105884,0.00392317,0.00641062,0.00929076,0.01441778,0.01140849,0.03629718,0.03205757,0.03728398,0.05262350,0.05725565,0.06478195,0.06242473,0.07819530,0.08595482,0.09801150,0.11165779,0.14479137,0.16266158,0.17798563,0.21319699,0.22963380,0.27719374,0.29190866,0.31472041,0.34112315,0.35713988,0.39804061,0.39698319,0.42435221,0.44250341,0.43565388,0.44068215,0.41743572,0.39229644,0.34705766,0.31459238,0.25478902,0.20030422,0.16597140,0.13035014,0.09939142,0.09036056,0.07344795,0.07246531,0.06558238,0.07308210,0.07164664,0.07368599,0.07155935,0.07491646,0.06179766,0.05922741,0.04517284,0.04718445,0.05368990,0.05206768,0.04499150,0.06613936,0.07489028,0.08374296,0.09932201,0.12878281,0.13888363,0.17272716,0.20039092,0.20533732,0.21964109,0.22083660,0.22593542,0.20883956,0.21516485,0.20132043,0.20288634,0.18540175,0.16443825,0.14479636,0.13521907,0.13983027,0.11426951,0.12131965,0.11435935,0.13698023,0.14115992,0.14855809,0.16868813,0.19340989,0.21798804,0.20136397,0.18810024,0.18966239,0.15916886,0.12712431,0.12231948,0.08131778,0.06939575,0.07255550,0.04434303,0.04563896,0.04748762,0.05909157,0.05197772,0.04812654,0.04798710,0.06617989,0.06753757,0.06639641,0.07097584,0.07889842,0.09051392,0.09306714,0.10349133,0.14551687,0.14169855,0.16068029,0.17995160,0.19202258,0.20007492,0.21200815,0.22131303,0.21895589,0.21916039,0.21853138,0.19738238,0.20201533,0.18467203,0.18303050,0.16893093,0.15986856,0.14939215,0.15159451,0.16466726,0.17052142,0.18140192,0.21151422,0.22716283,0.26892927,0.29140627,0.32973382,0.36325208,0.39872461,0.42619683,0.46183849,0.47555240,0.49250997,0.51081900,0.53113810,0.54787852,0.54769433,0.53146099,0.52719645,0.48156973,0.46392319,0.43552806,0.39380800,0.34969857,0.30798927,0.29918149,0.28058318,0.25986734,0.24043581,0.25051308,0.24913433,0.24828886,0.26696079,0.26910062,0.31259356,0.29020094,0.29955690,0.29228122,0.26302969,0.26039621,0.24343118,0.21976890,0.19168317,0.17369738,0.16009799,0.17206699,0.15991207,0.14552568,0.18398024,0.20988062,0.23213072,0.27750537,0.32508279,0.35789969,0.40817310,0.41288755,0.44052156,0.46900312,0.47736668,0.47189859,0.45292942,0.45717855,0.41789151,0.41079295,0.38634197,0.38210398,0.35181765,0.36822889,0.35676188,0.31738985,0.29142846,0.28107439,0.22844416,0.19487086,0.17362118,0.15782267,0.12711488,0.13515121,0.10804637,0.11197929,0.10610610,0.11635098,0.10850558,0.10546155,0.11008061,0.11807809,0.11531726,0.11931670,0.12232749,0.12803772,0.12618757,0.12715882,0.13171508,0.13194813,0.14522780,0.13044436,0.14281536,0.14446145,0.14821296,0.14057931,0.13935975
