1000,1005,1010,1015,1020,1025,1030,1035,1040,1045,1050,1055,1060,1065,1070,1075,1080,1085,1090,1095,1100,1105,1110,1115,1120,1125,1130,1135,1140,1145,1150,1155,1160,1165,1170,1175,1180,1185,1190,1195,1200,1205,1210,1215,1220,1225,1230,1235,1240,1245,1250,1255,1260,1265,1270,1275,1280,1285,1290,1295,1300,1305,1310,1315,1320,1325,1330,1335,1340,1345,1350,1355,1360,1365,1370,1375,1380,1385,1390,1395,1400,1405,1410,1415,1420,1425,1430,1435,1440,1445,1450,1455,1460,1465,1470,1475,1480,1485,1490,1495,1500,1505,1510,1515,1520,1525,1530,1535,1540,1545,1550,1555,1560,1565,1570,1575,1580,1585,1590,1595,1600,1605,1610,1615,1620,1625,1630,1635,1640,1645,1650,1655,1660,1665,1670,1675,1680,1685,1690,1695,1700,1705,1710,1715,1720,1725,1730,1735,1740,1745,1750,1755,1760,1765,1770,1775,1780,1785,1790,1795,1800,1805,1810,1815,1820,1825,1830,1835,1840,1845,1850,1855,1860,1865,1870,1875,1880,1885,1890,1895,1900,1905,1910,1915,1920,1925,1930,1935,1940,1945,1950,1955,1960,1965,1970,1975,1980,1985,1990,1995,2000,2005,2010,2015,2020,2025,2030,2035,2040,2045,2050,2055,2060,2065,2070,2075,2080,2085,2090,2095,2100,2105,2110,2115,2120,2125,2130,2135,2140,2145,2150,2155,2160,2165,2170,2175,2180,2185,2190,2195,2200,2205,2210,2215,2220,2225,2230,2235,2240,2245,2250,2255,2260,2265,2270,2275,2280,2285,2290,2295,2300,2305,2310,2315,2320,2325,2330,2335,2340,2345,2350,2355,2360,2365,2370,2375,2380,2385,2390,2395,2400,2405,2410,2415,2420,2425,2430,2435,2440,2445,2450,2455,2460,2465,2470,2475,2480,2485,2490,2495,2500
0.03448888,0.04504701,0.03588750,0.03356248,0.02996393,0.03447020,0.03304407,0.02878967,0.02864638,0.02691220,0.02527870,0.02184322,0.01547812,0.01573032,0.01937628,0.02012670,0.01130959,0.00678559,0.00953406,0.01943268,0.01015290,0.01132124,0.02269096,0.03008514,0.02196527,0.03173279,0.03691574,0.03739851,0.04247840,0.04029152,0.03914466,0.04187488,0.04127670,0.03493261,0.04347692,0.05444883,0.05964760,0.08788815,0.09121588,0.12110146,0.12167939,0.13886492,0.14464468,0.13989127,0.12537914,0.10318340,0.10362824,0.07863340,0.05561074,0.05130139,0.04185568,0.03595586,0.02780323,0.02215890,0.03112886,0.02426301,0.02131057,0.02618418,0.02721751,0.02823561,0.02524756,0.01950555,0.03007711,0.02794759,0.03062630,0.03544256,0.03017710,0.03267920,0.03458281,0.03573313,0.03009352,0.04367023,0.04792201,0.06792430,0.08292675,0.09933836,0.11237119,0.14262795,0.15661923,0.15900611,0.16005733,0.17203495,0.18155489,0.19205231,0.22013958,0.25491832,0.29861222,0.33909304,0.35134346,0.41513914,0.43816765,0.46425230,0.46530724,0.47659723,0.47536474,0.43660809,0.43368366,0.43451773,0.41682166,0.37916801,0.35194485,0.33042512,0.30154415,0.25957786,0.22200409,0.19291036,0.14988131,0.13134361,0.10505760,0.10207383,0.10761957,0.09799957,0.10581679,0.09742756,0.11304279,0.11258739,0.11759873,0.11614266,0.11300022,0.11474416,0.08570955,0.08549833,0.07218946,0.06418550,0.07001576,0.06401153,0.07143936,0.07137797,0.08641400,0.09938795,0.09406852,0.12469183,0.12882056,0.15001492,0.16370354,0.19569848,0.19796022,0.20633545,0.23943126,0.25619834,0.26200781,0.27325555,0.27264064,0.26755866,0.25736446,0.26977312,0.23836574,0.23802843,0.21687049,0.20410745,0.19210275,0.18900105,0.18416290,0.18777689,0.18952044,0.19013601,0.20137306,0.18268381,0.16461276,0.14375296,0.13703311,0.11484040,0.10201889,0.07634836,0.09180246,0.07113486,0.06527802,0.06741894,0.06078153,0.06398778,0.08171687,0.08222080,0.08421211,0.08849704,0.09654707,0.11630952,0.13195500,0.15669136,0.16501071,0.19928965,0.20985308,0.23744149,0.26553706,0.29948778,0.34361621,0.35237764,0.35987128,0.37784425,0.38944566,0.38163826,0.37694747,0.34849533,0.32776977,0.29975527,0.27701457,0.24621685,0.22064229,0.21751683,0.19369318,0.17198536,0.17933397,0.18636321,0.18876917,0.19996601,0.20273536,0.22716422,0.23113751,0.27215205,0.29132525,0.31391488,0.35872170,0.37461678,0.41615353,0.42159173,0.43727121,0.45423584,0.46833517,0.48357537,0.45525330,0.45405258,0.45858101,0.42485058,0.39205210,0.38208232,0.33337341,0.30935974,0.26740484,0.24869282,0.23164888,0.20587482,0.20320828,0.21731795,0.22348957,0.21864583,0.21268888,0.21259800,0.21317556,0.21144166,0.19538941,0.20583424,0.18384977,0.17750310,0.16275497,0.16609563,0.15138075,0.16717115,0.16806183,0.19599847,0.20537862,0.23227491,0.25678814,0.29763870,0.33973153,0.36031220,0.41062792,0.43413347,0.45969898,0.48097872,0.48709861,0.49222357,0.47774449,0.47253017,0.48714658,0.47614877,0.46158747,0.45502854,0.44512489,0.43111542,0.42206638,0.41301116,0.37541454,0.34178255,0.32459619,0.27129380,0.23252831,0.19934977,0.16897399,0.16476733,0.15109644,0.12534534,0.14133139,0.13521469,0.14711582,0.14887833,0.15418204,0.14907183,0.16240320,0.15885089,0.16164666,0.17054124,0.18886981,0.19118308,0.19809435,0.20444101,0.20548468,0.20248417,0.20126998,0.22324765,0.22092386,0.21303835,0.21758779
0.04568878,0.06001009,0.06288079,0.07415850,0.08277801,0.08576068,0.09422499,0.09545360,0.09568257,0.07264788,0.06366228,0.04533831,0.03824203,0.02106948,0.02961357,0.01536647,0.02194529,0.01705390,0.01911099,0.00891872,0.02422471,0.02499646,0.02755816,0.04299668,0.05490759,0.07047704,0.08829135,0.10563261,0.10090801,0.10118399,0.08567363,0.07956696,0.05239836,0.03890080,0.03443677,0.03511732,0.02848806,0.03842832,0.03043022,0.04159841,0.04861016,0.05281221,0.05203132,0.04937937,0.04320954,0.04839316,0.03983429,0.03321590,0.02642567,0.01712032,0.02431974,0.01264595,0.01468174,0.01545096,0.00816676,0.01659314,0.00936630,0.01555166,0.01307077,0.02037541,0.01121098,0.01387702,0.01208474,0.00574729,0.01183274,0.01224054,0.00928805,0.01289779,0.01929954,0.00895223,0.01518899,0.01614500,0.02490308,0.01468173,0.02535956,0.03682170,0.02982691,0.04228927,0.04852143,0.04708747,0.06279535,0.06369532,0.07292131,0.08975682,0.09964854,0.13809764,0.16416998,0.18290970,0.21802627,0.23661701,0.26238657,0.27175184,0.30784324,0.33174523,0.35732637,0.36788106,0.38830970,0.42874728,0.45415210,0.46233921,0.48939727,0.48799817,0.47319758,0.44678648,0.38038923,0.32585536,0.26098900,0.21018118,0.18026228,0.14117933,0.09913124,0.10429947,0.11086008,0.09261848,0.12424430,0.11817791,0.10659598,0.10306990,0.10744240,0.08853093,0.08975574,0.06726939,0.05722178,0.05467027,0.04960160,0.05525620,0.07699542,0.08133391,0.11377911,0.12686183,0.16904769,0.19255265,0.23583100,0.25011501,0.27973423,0.30111277,0.31164446,0.30850663,0.29861018,0.26828540,0.26527337,0.23905162,0.20283647,0.17024553,0.15244854,0.13053714,0.11379633,0.08499097,0.07621310,0.06726409,0.06942178,0.07132762,0.07503294,0.08327860,0.08614959,0.09583342,0.09162098,0.09251309,0.07785267,0.06581967,0.05333226,0.04363956,0.03480929,0.02088206,0.01848125,0.00319541,0.00254086,0.00719561,-0.00145776,0.00609634,0.00620646,0.01758794,0.00129403,0.01212072,0.01609674,0.03550905,0.01322235,0.01922739,0.03253347,0.04201903,0.04154538,0.05267328,0.07302131,0.06263016,0.07592892,0.08790806,0.07861765,0.09341214,0.09877402,0.09864911,0.08987607,0.08198103,0.08041286,0.07883255,0.07541063,0.08376196,0.08860914,0.09598804,0.09838050,0.12927787,0.14759481,0.17839932,0.23429344,0.25129308,0.30697087,0.35931477,0.40496722,0.44327453,0.48184291,0.52019650,0.54926002,0.56878440,0.57039711,0.57712088,0.59496794,0.57981970,0.55182213,0.53642172,0.51854290,0.48703720,0.44268047,0.39751624,0.37555132,0.33824675,0.29442713,0.27902511,0.25509746,0.25436059,0.24877979,0.25271683,0.27493744,0.30410928,0.32325092,0.33414350,0.36438958,0.36347547,0.37163580,0.37056245,0.34441663,0.30056809,0.26778974,0.23858400,0.18930293,0.16527082,0.13704044,0.12403659,0.11150427,0.11853135,0.12602115,0.14193245,0.17612530,0.22181123,0.25644053,0.30271400,0.32523729,0.37921344,0.39863433,0.40269378,0.41075270,0.41024790,0.41080511,0.38825922,0.36410607,0.31656409,0.28635241,0.26598466,0.23408302,0.19387531,0.17754757,0.16358577,0.14002863,0.11755368,0.09818875,0.06867763,0.06018505,0.04496872,0.03790159,0.01718681,0.01604851,0.00232855,0.00401190,-0.00212095,0.00075695,0.00391443,0.01712627,0.00860342,0.00874011,0.00482341,0.00487845,0.00578420,0.01369823,0.01752220,0.01380910,0.01379755,0.01550596,0.02137208,0.02072940,0.01700968,0.02656581,0.01633620,0.02395737
0.08657824,0.06691019,0.06860026,0.06901691,0.06625090,0.06543078,0.06176064,0.04828905,0.05370467,0.04828514,0.05617180,0.03684572,0.04616256,0.03832596,0.04073563,0.03310204,0.03109596,0.04280785,0.03393405,0.04071869,0.03991195,0.04779610,0.04879442,0.04164434,0.03910041,0.05508451,0.06238854,0.05557548,0.06063623,0.05596174,0.05649662,0.04013104,0.04882587,0.04691408,0.04920228,0.04398626,0.05231832,0.04964063,0.04531534,0.04822162,0.06152499,0.05798310,0.05316287,0.05781839,0.05051046,0.06078803,0.04192673,0.04859213,0.04516067,0.05666474,0.05647981,0.05076063,0.04706319,0.04715117,0.05114554,0.04828056,0.05305119,0.04541664,0.05408234,0.04963588,0.05155879,0.05145931,0.04224083,0.05401378,0.05213254,0.04921542,0.05400649,0.04115324,0.05084178,0.05561132,0.05610954,0.04668632,0.04797476,0.06789801,0.05665587,0.07769958,0.08134107,0.08912487,0.10556892,0.12973559,0.16172556,0.17826745,0.22453047,0.27824130,0.34216242,0.39390936,0.43528672,0.50324627,0.54463925,0.56915391,0.60782514,0.60219673,0.60192270,0.55267150,0.53915357,0.49567072,0.44287813,0.41386711,0.37761735,0.34053004,0.31185909,0.25607434,0.22185509,0.20610340,0.17415155,0.14153748,0.13855422,0.12137958,0.10467029,0.09267194,0.10461627,0.10972047,0.12103007,0.12322539,0.13325924,0.12681313,0.13719038,0.13033177,0.11790393,0.11762943,0.09597802,0.10135504,0.08156859,0.07701402,0.07585517,0.07076478,0.06830963,0.07718019,0.08068233,0.08625161,0.08614572,0.09599928,0.10779124,0.10956534,0.11704703,0.11314291,0.12289320,0.12223348,0.12182623,0.11792196,0.10668902,0.10814894,0.09455403,0.09661044,0.08987331,0.08953506,0.08422135,0.08702587,0.09523049,0.09403154,0.09173471,0.10389240,0.11163486,0.12925802,0.13140523,0.14840573,0.12577466,0.12816825,0.12329385,0.11156933,0.10360178,0.08665225,0.07384723,0.06546602,0.06972134,0.07855269,0.07596115,0.08528405,0.07011226,0.07632075,0.08386356,0.09416450,0.09971074,0.10938443,0.12449785,0.13788165,0.17906427,0.20518700,0.24296661,0.27597477,0.32290024,0.38465716,0.41902249,0.46331112,0.50386768,0.51519464,0.56508167,0.56028680,0.56352373,0.56099631,0.51769505,0.50546127,0.44599349,0.41375919,0.35614230,0.32869180,0.28142485,0.24463096,0.21215074,0.20623999,0.18116748,0.16838176,0.16228909,0.16312889,0.17044192,0.18573992,0.19422681,0.21351223,0.21816079,0.25627722,0.27451890,0.29470148,0.29918517,0.32789684,0.35051922,0.36432642,0.37033341,0.37218462,0.35737418,0.36423530,0.35640694,0.32801083,0.31366755,0.29950665,0.28153246,0.23663724,0.21368029,0.18993365,0.18132562,0.18416272,0.15991972,0.16281088,0.14512480,0.16764372,0.16116211,0.16103573,0.16052088,0.16179034,0.13474209,0.13690662,0.13816486,0.12671264,0.11134766,0.11520449,0.11582432,0.12610997,0.13257216,0.15662213,0.18015661,0.19468131,0.21812528,0.25215743,0.26381166,0.28820949,0.28238730,0.30337959,0.31567101,0.29968800,0.25944107,0.27307008,0.25554120,0.25425818,0.23960988,0.21022628,0.20641165,0.20948288,0.20039545,0.19190617,0.19279375,0.19336906,0.17359868,0.14901410,0.14124185,0.12931851,0.12188581,0.11600984,0.09766675,0.11643677,0.10254834,0.11197573,0.12204607,0.10905840,0.12489931,0.12984950,0.13659980,0.14842659,0.15357267,0.15765744,0.17579646,0.17613689,0.17875325,0.19346392,0.21511001,0.21911236,0.22786578,0.23422800,0.21901052,0.24297345,0.23671146,0.24212151,0.24186607
0.06002890,0.05499076,0.05616137,0.05765941,0.05500043,0.05095209,0.06572225,0.05381087,0.04148416,0.04667480,0.04387357,0.03773373,0.03518388,0.03739607,0.02901389,0.01037008,0.02821513,0.02254261,0.01401415,0.01921973,0.00668737,0.02218738,0.02878086,0.02971365,0.03160816,0.03738169,0.04132201,0.06799250,0.05429720,0.06835573,0.06331895,0.05252248,0.02986337,0.03388005,0.03865395,0.04045003,0.04656868,0.05799313,0.06399463,0.08513021,0.09911330,0.10259349,0.10871948,0.11288230,0.10527123,0.08976571,0.07341869,0.06757816,0.04103587,0.05153298,0.03789078,0.03049988,0.02191885,0.02291486,0.01503301,0.02085931,0.01853914,0.01610454,0.02028241,0.01842442,0.00902208,0.00996385,0.01573727,0.01368141,0.00019291,0.01098466,0.01724988,0.00336594,0.00921925,0.01352405,0.02318610,0.01947086,0.02682235,0.02450976,0.03935207,0.06053370,0.07533780,0.09874291,0.10108962,0.12482159,0.12420513,0.14160809,0.15431351,0.17775121,0.21124900,0.25902215,0.30200399,0.36781254,0.39323156,0.44854094,0.48458731,0.48299716,0.51435454,0.50564976,0.49706876,0.49603837,0.45242266,0.44169418,0.42291239,0.38470666,0.37445399,0.34609322,0.32767852,0.29016131,0.24530411,0.21449347,0.18309266,0.14630740,0.12462254,0.10018658,0.08427856,0.08594537,0.09634129,0.08902271,0.09730401,0.11737020,0.12164840,0.11076460,0.10502608,0.10216021,0.08586112,0.07116471,0.04814647,0.04369268,0.04401649,0.03561718,0.03187880,0.03134271,0.05437576,0.05635048,0.05771022,0.07598919,0.09965771,0.12148606,0.13051214,0.15468128,0.16711693,0.17637768,0.19394575,0.20105268,0.19271786,0.20006787,0.19755214,0.18959826,0.20799377,0.17851483,0.15651812,0.14730057,0.13946380,0.10717838,0.10028760,0.09159923,0.08993549,0.08348467,0.09008040,0.09112629,0.08794477,0.08660369,0.06202228,0.07191655,0.05490427,0.04073773,0.02383543,0.01998634,0.00581500,0.00513211,0.00419652,-0.00574653,0.00573724,-0.00601029,0.00831611,0.00416518,0.00305233,0.00316732,0.01302529,0.03046817,0.05246612,0.06319433,0.06749881,0.10105804,0.13451309,0.15145195,0.19729176,0.23336554,0.25768116,0.28496476,0.32730930,0.31856801,0.34772192,0.33520248,0.33564182,0.31632268,0.28047655,0.26266631,0.24014985,0.20846993,0.18795565,0.15601212,0.13718744,0.12182911,0.09499254,0.10742446,0.11662317,0.11674083,0.13078161,0.15396282,0.17551456,0.20211497,0.23952494,0.26592809,0.27817930,0.31427377,0.34540838,0.36827657,0.36867109,0.39301170,0.41927994,0.42916256,0.42193810,0.39135391,0.40803035,0.37369542,0.34128038,0.32330481,0.27955572,0.25318726,0.22610616,0.19163116,0.18428130,0.16563085,0.15454275,0.15276877,0.14053270,0.15518591,0.16492698,0.15673354,0.17210169,0.15234741,0.14535235,0.13717675,0.11818935,0.10629061,0.09671194,0.07001123,0.05974170,0.05572978,0.05736595,0.06659497,0.08547853,0.10236187,0.12379748,0.15414802,0.18984934,0.23394305,0.24912694,0.28048067,0.31464929,0.32671775,0.34092631,0.35347998,0.34818274,0.34142133,0.32201894,0.31088269,0.28141318,0.26898232,0.24859124,0.24092060,0.21257510,0.20351228,0.19169299,0.16895457,0.13502232,0.12261295,0.07764679,0.05415309,0.04280825,0.02218512,0.00162061,-0.00508289,-0.01779708,-0.01129396,-0.01759440,-0.01007291,-0.00679801,0.00027747,-0.00426321,0.00059539,0.00736269,0.01935290,0.02155787,0.02601244,0.03853076,0.03160092,0.03642533,0.05119800,0.04929556,0.05818016,0.06098329,0.05345247,0.06025455
-0.02949119,-0.01571514,-0.00335403,-0.00973706,-0.00397483,-0.00487390,-0.00831089,-0.00749965,-0.01879567,-0.01027624,-0.02038360,-0.02072262,-0.02674514,-0.04425186,-0.04287633,-0.04222193,-0.03700591,-0.04187047,-0.04230303,-0.03864029,-0.04788811,-0.03025165,-0.03823206,-0.03424924,-0.03820657,-0.01803991,-0.00813172,-0.00363097,0.00673881,-0.00022456,-0.00413815,-0.00847797,-0.02714702,-0.01829797,-0.01758309,-0.00131750,-0.00104731,0.02501749,0.04126104,0.04877278,0.07876206,0.07532261,0.07927457,0.08834792,0.06713945,0.05755551,0.03678620,0.02175504,0.01794351,-0.00794389,-0.02478906,-0.02770180,-0.04562677,-0.04571514,-0.04475285,-0.04770798,-0.03658977,-0.03837593,-0.04301573,-0.04194438,-0.04778655,-0.04607587,-0.05193636,-0.03799601,-0.04220493,-0.04399065,-0.05302514,-0.02524064,-0.03982010,-0.04289976,-0.03928314,-0.02974304,-0.02730352,-0.01939564,0.00513836,0.02410670,0.04634731,0.05459877,0.06702326,0.08806380,0.07620531,0.07458093,0.08291990,0.08438046,0.10279627,0.11183908,0.13810804,0.16784688,0.20303119,0.21704848,0.23544894,0.25896172,0.27867972,0.28946325,0.29431810,0.31518508,0.30412064,0.30885660,0.31242122,0.32242334,0.30823759,0.28416588,0.26526019,0.25111583,0.19965921,0.16436385,0.12637188,0.09431422,0.05320417,0.02831721,0.01436641,0.00963294,-0.00383901,-0.00756255,-0.00601885,-0.00369394,-0.00118641,-0.01170789,-0.00834517,-0.00935318,-0.01359015,-0.02047279,-0.01834669,-0.01841340,-0.01472009,-0.01463287,-0.00356022,-0.00397429,0.01115274,0.03400680,0.03351355,0.06621766,0.08408099,0.10373155,0.11820533,0.14506314,0.15681001,0.18646515,0.18722109,0.19743084,0.21434706,0.23672735,0.22502970,0.20864447,0.19858269,0.19641316,0.17554627,0.16005570,0.13400820,0.11699490,0.11552287,0.10790712,0.08917035,0.09033778,0.08985268,0.09430943,0.09050500,0.09122838,0.07682263,0.05735090,0.04624422,0.02241485,0.00722438,-0.00365080,-0.01932919,-0.01407532,-0.01956360,-0.02685332,-0.03076701,-0.02012438,-0.02573224,-0.02090070,-0.02051028,-0.01128875,-0.00816800,-0.00380708,0.01557620,0.01576240,0.04037598,0.05806084,0.08050276,0.10449825,0.12820666,0.13922123,0.17266522,0.19312676,0.20630549,0.20899059,0.21645562,0.20957509,0.21704196,0.18922528,0.18645675,0.16129109,0.14558761,0.12840583,0.10398342,0.07857742,0.08059799,0.08189040,0.08544997,0.09601163,0.10008694,0.10643936,0.13056562,0.15621710,0.17171559,0.20707457,0.22580445,0.25986682,0.27207526,0.29898500,0.32190885,0.33884582,0.33923144,0.34335271,0.35401212,0.33598064,0.32741201,0.30224467,0.28511269,0.26696371,0.25796908,0.20483911,0.18030961,0.14975007,0.14598262,0.12186213,0.10965013,0.12279314,0.10944828,0.11470652,0.12949182,0.14696466,0.16166692,0.15700749,0.16614432,0.17008994,0.14832929,0.14160259,0.12906922,0.10191393,0.08822814,0.06651739,0.05498148,0.03425744,0.04654436,0.05537826,0.05194792,0.07149019,0.08929538,0.13175937,0.14042102,0.18763814,0.22044785,0.25279430,0.30653646,0.32758869,0.36287646,0.35688832,0.40336068,0.38915257,0.38357038,0.36023595,0.34400290,0.34463220,0.33874126,0.31560725,0.31127802,0.31186874,0.28189998,0.23778210,0.22157467,0.18302590,0.12363831,0.10512870,0.06674521,0.04918689,0.02305238,0.02228737,0.00581815,0.01578752,0.01377554,0.00007281,0.01930137,0.01843998,0.01948919,0.01392777,0.02530163,0.02969054,0.04624757,0.03743085,0.03607088,0.04678150,0.04803517,0.06450256,0.06219260,0.06027258,0.06683422,0.06262249,0.06329241
0.03814922,0.03865085,0.03654350,0.05381630,0.04572269,0.04984893,0.04573142,0.04512242,0.05321346,0.03751972,0.04113165,0.03611533,0.04236277,0.03352388,0.04480138,0.03451896,0.03536411,0.03489993,0.04105066,0.04046773,0.03451758,0.03984314,0.04832228,0.03673326,0.04824384,0.05068801,0.04918902,0.04600867,0.05611726,0.04697734,0.05139216,0.05922300,0.05655419,0.05748315,0.05548815,0.08080547,0.09480874,0.07950185,0.12224238,0.12153278,0.14363903,0.15404949,0.15430744,0.15846490,0.15199733,0.12725297,0.11336300,0.10819462,0.08270965,0.06955981,0.06614683,0.06140055,0.05083187,0.04883130,0.06067269,0.05227437,0.05185654,0.04533272,0.05558339,0.05318578,0.04876453,0.04122809,0.04942834,0.04728444,0.04733118,0.03816801,0.04921214,0.05501699,0.06150771,0.05471337,0.04678699,0.05224306,0.07281110,0.08050549,0.09061986,0.11163450,0.12860716,0.14049728,0.16724298,0.15909280,0.15325491,0.14351836,0.15057708,0.14416806,0.16357156,0.18223806,0.20997509,0.24641734,0.25570359,0.32956695,0.34356692,0.38568804,0.43287427,0.45463101,0.48573883,0.52035886,0.53268380,0.54487553,0.53215412,0.52359889,0.47487349,0.42913758,0.38179009,0.32190150,0.28101495,0.22923413,0.17995337,0.15395099,0.13234466,0.11103868,0.11762997,0.12129758,0.12413246,0.12957290,0.14161775,0.14439141,0.16413818,0.15100926,0.14530615,0.13090005,0.12062037,0.10200007,0.09801331,0.09187669,0.07731200,0.08001703,0.07691070,0.08133780,0.09502445,0.09516956,0.10514260,0.10424805,0.11217773,0.12468159,0.14864116,0.15645044,0.16410538,0.18817505,0.21228044,0.22047113,0.24036864,0.24423122,0.24993956,0.26919926,0.25956319,0.24972491,0.24533316,0.24233218,0.22253740,0.23296835,0.24237093,0.25700255,0.27019797,0.29478172,0.31344469,0.32778124,0.33397937,0.32170058,0.28754460,0.25918113,0.23232786,0.18377534,0.15295139,0.12471691,0.10603457,0.10139272,0.08983050,0.08168942,0.08203523,0.08179150,0.07707866,0.07666276,0.09000918,0.08549803,0.09354518,0.09025142,0.09728024,0.11111221,0.12039698,0.11871414,0.12857881,0.15241787,0.14954849,0.16759897,0.17530628,0.18782514,0.18533021,0.19662108,0.19728550,0.18679107,0.18305138,0.17859489,0.17985151,0.16866589,0.13425025,0.16318543,0.14383257,0.13623333,0.14500245,0.14276025,0.12995875,0.14494582,0.14465440,0.15196444,0.16887100,0.18187107,0.22715416,0.24359934,0.27204530,0.32630530,0.36638557,0.41094811,0.49331136,0.52309812,0.57477625,0.63426349,0.63777516,0.66874423,0.70125381,0.71196699,0.67182968,0.64247036,0.62938437,0.54130707,0.49633669,0.45104985,0.40938796,0.32594211,0.31352359,0.27072288,0.22399245,0.22802553,0.20395338,0.19662906,0.18396133,0.17686480,0.16324733,0.16647008,0.16377602,0.16559587,0.15897834,0.14857489,0.15024640,0.15139702,0.15203613,0.15291340,0.20097102,0.21029977,0.24839648,0.31411113,0.32074052,0.38408550,0.46358110,0.51465060,0.57729982,0.62527809,0.61842481,0.63152789,0.63488719,0.64887018,0.61032616,0.59515709,0.58031051,0.55881200,0.56411763,0.57667764,0.56793065,0.57750915,0.56148677,0.54237269,0.55112800,0.48198134,0.43901719,0.35477595,0.31319940,0.23932829,0.20323939,0.18172226,0.14747960,0.13494421,0.13883666,0.13871921,0.13148375,0.13019334,0.12742664,0.13099379,0.14225987,0.13109617,0.13291910,0.13486564,0.14190274,0.14673798,0.14393019,0.13994305,0.14861571,0.15184086,0.15436443,0.15656284,0.16552696,0.15456053,0.15073374
0.00759708,0.00819231,0.00364722,0.00974466,0.00953714,0.00215362,0.02140324,0.00308515,0.00055124,-0.00120227,-0.00236971,0.00312788,-0.00157756,-0.00901301,-0.00566789,-0.01617053,-0.00909329,-0.01636831,-0.01549249,-0.00838481,-0.01294235,-0.01143960,-0.00583464,0.00144290,-0.00478465,0.00415953,0.00771866,0.00010707,0.00763418,0.00320040,0.00624049,0.01149779,0.01295702,0.00564510,0.01824920,0.02702025,0.03869831,0.05070911,0.06242504,0.08067282,0.08901356,0.09041184,0.09920042,0.08158439,0.07772977,0.07454372,0.04734583,0.03213779,0.01397081,0.01645725,0.00585465,0.00278132,-0.01469617,-0.00031593,-0.01195452,-0.01059271,-0.01400597,-0.00913252,-0.00474397,-0.00657106,-0.00577636,-0.00617542,-0.00299894,-0.01590394,-0.01569072,-0.00459378,-0.01101223,-0.01166608,-0.01299622,-0.01626282,0.00108361,-0.00024423,0.01498015,0.02195238,0.03805945,0.05552901,0.07602410,0.08110853,0.09408083,0.10596086,0.11432300,0.11345798,0.12669028,0.15091439,0.20297649,0.25211006,0.28503011,0.35108012,0.39334376,0.45134627,0.46878647,0.48989058,0.49621470,0.49865202,0.48667024,0.44922256,0.40585470,0.38905349,0.33495120,0.29067313,0.24677269,0.21197650,0.18231794,0.14333598,0.12004774,0.09744046,0.06697414,0.06901232,0.07217069,0.09302475,0.09983394,0.11725982,0.14695722,0.18055674,0.21042321,0.19929629,0.20239106,0.20249560,0.16403050,0.14138626,0.11867953,0.09418452,0.05173153,0.03564281,0.02697165,0.01805492,0.01580370,0.00586871,0.02242450,0.01972621,0.02654830,0.03575303,0.04490234,0.06343660,0.06389620,0.07198935,0.09134325,0.10636540,0.12976409,0.13900392,0.15132843,0.15885999,0.16648741,0.16277571,0.14848310,0.16246220,0.13741975,0.12725404,0.11488657,0.09486900,0.07836893,0.08552538,0.08311525,0.08699719,0.07474097,0.08042786,0.07758732,0.06966004,0.05182379,0.03529356,0.02910577,0.00561415,0.00733726,0.00277891,0.00181876,-0.00128185,0.00765451,-0.01007039,-0.00352510,0.00076965,-0.00621783,-0.00989689,-0.00556002,0.01147159,0.00228612,0.01223213,0.02323074,0.02167588,0.04249430,0.04724760,0.06468066,0.07084971,0.08349632,0.09149954,0.10729493,0.12236805,0.12653381,0.12153502,0.13131875,0.11953750,0.12022864,0.12062959,0.09316418,0.08777425,0.07486761,0.06940344,0.05078339,0.04545327,0.03990769,0.03706451,0.05012840,0.04448303,0.05535062,0.06631672,0.08435884,0.09741436,0.13247909,0.15623477,0.18232636,0.21349137,0.25681774,0.30990065,0.35889431,0.41521136,0.46064239,0.50549939,0.55645964,0.56577000,0.58824557,0.58417373,0.55328415,0.54859772,0.49396670,0.46365892,0.39706064,0.35275318,0.30289035,0.25940184,0.21480993,0.17336144,0.14648853,0.12428107,0.11663768,0.10468747,0.09045139,0.07258676,0.07311869,0.07015589,0.06756296,0.05192527,0.03969352,0.04726441,0.04444323,0.06347378,0.07880017,0.10009773,0.12407498,0.17622760,0.21386564,0.26630386,0.30974228,0.33900951,0.38246780,0.39578706,0.43745539,0.43085833,0.44632906,0.42978365,0.39153446,0.39072813,0.37309282,0.33391266,0.30696648,0.29364959,0.28985064,0.24867112,0.23626022,0.23171971,0.21817323,0.21112727,0.18163765,0.14833827,0.12718992,0.08677072,0.06700102,0.04552903,0.02609544,0.01927089,0.01078217,0.00588246,0.00664660,0.00418505,-0.00685652,-0.00469459,0.00692770,0.00816712,0.00943382,-0.00278624,0.01140794,0.01529850,0.01583079,0.01445306,0.02321596,0.01742101,0.03121461,0.02583480,0.02284620,0.03436412,0.03314663,0.02115837,0.02529442
0.00271943,-0.00164712,-0.00384726,-0.00933701,-0.00509964,0.00618498,0.00406682,-0.00603347,-0.00076786,-0.00175162,-0.00859862,-0.01338347,-0.01871344,-0.01697813,-0.01718932,-0.02204488,-0.01570668,-0.01221351,-0.01891279,-0.01924428,-0.01121761,-0.01447971,-0.00946835,-0.01061963,-0.00541239,-0.00653403,-0.00799506,0.00358137,0.00275594,0.00469670,0.00871460,0.00524672,0.01002827,0.01812590,0.02617588,0.04673748,0.06836615,0.10832851,0.13972021,0.16512164,0.20482034,0.22797998,0.23377996,0.23242437,0.21606736,0.17631295,0.16462596,0.10380566,0.08200765,0.06640056,0.03580642,0.01335073,0.00266437,0.00608709,-0.00330137,-0.00457213,-0.00845428,-0.00851523,-0.00659503,-0.01076603,-0.00541150,-0.00386547,-0.00620346,-0.00486942,-0.00245953,-0.00464307,-0.00519803,-0.00852462,-0.01613158,0.00066709,0.00021768,0.01423330,0.03115561,0.04645046,0.08399342,0.10750257,0.15167438,0.16944458,0.18566810,0.20550145,0.19555794,0.17559182,0.14740673,0.15358013,0.14400352,0.16217683,0.18897948,0.19078303,0.21829465,0.24034056,0.25503960,0.25340953,0.25879238,0.26605365,0.23624119,0.23191162,0.20302678,0.17837058,0.17189893,0.14456302,0.12468790,0.09803918,0.09047528,0.08551208,0.07768897,0.06639944,0.05887911,0.04283264,0.04413992,0.03371689,0.03291245,0.03394052,0.04106299,0.03446812,0.06319646,0.05771356,0.05104808,0.04827239,0.05258461,0.04593659,0.03909970,0.02266840,0.03181366,0.01536404,0.00952299,0.00835148,0.01582997,0.01336435,0.01933329,0.03241783,0.03714020,0.04730084,0.06131172,0.07653140,0.10398388,0.13160292,0.15560073,0.20294746,0.22052848,0.26872682,0.30853208,0.35181848,0.37305635,0.39055566,0.38372701,0.38917053,0.36412209,0.33936993,0.29660922,0.24986948,0.22498317,0.16955772,0.13945556,0.09732902,0.06782683,0.05969971,0.04422197,0.04286159,0.02730030,0.02037442,0.00930531,0.01747829,0.00772539,0.01086038,-0.00474208,0.00135200,0.01359625,0.00637951,0.00817621,0.01447273,0.00599074,0.01122868,0.01852044,0.02380146,0.02376736,0.03418671,0.03588676,0.05320083,0.06272684,0.08892502,0.09615669,0.11325457,0.13546274,0.16011465,0.17123697,0.19115296,0.21400258,0.21982053,0.22325862,0.21300275,0.21416263,0.19767875,0.18274760,0.17542137,0.14601671,0.12076397,0.11553315,0.09416824,0.08728837,0.07392458,0.06856163,0.06204993,0.05617027,0.06787479,0.06214037,0.06614637,0.07883507,0.07471582,0.08837205,0.10848179,0.11108948,0.12933655,0.14441077,0.14748151,0.14611197,0.14521560,0.15433266,0.17160684,0.15963810,0.15111717,0.16849791,0.15453876,0.14317901,0.12933455,0.12276672,0.10386894,0.09585698,0.08948958,0.08539839,0.07338153,0.06726661,0.07561267,0.05986854,0.06995721,0.07670465,0.07492036,0.07493027,0.07037718,0.06770406,0.05576453,0.05017857,0.05690705,0.04315673,0.03504118,0.03098753,0.02567494,0.03731983,0.04717305,0.06066614,0.06750845,0.08751658,0.09926980,0.11834363,0.12959296,0.16164413,0.17159957,0.23122690,0.25186397,0.30329948,0.34904942,0.38333253,0.39153251,0.40996902,0.43030405,0.40986073,0.40727220,0.38165719,0.39575142,0.36181048,0.34656186,0.32339408,0.29453791,0.26165624,0.22147978,0.16296397,0.15098477,0.09078118,0.07146051,0.04537907,0.02637473,0.02656833,0.02235627,0.02670036,0.02826386,0.02969283,0.02858442,0.04303907,0.03783032,0.03721397,0.04128120,0.03966250,0.05307193,0.04460546,0.06005733,0.06096767,0.06206237,0.05316263,0.06674568,0.07608552,0.07639864,0.07357745
0.05978013,0.05503106,0.06342527,0.06149206,0.06306657,0.07912548,0.06370900,0.07463906,0.07394051,0.05667185,0.05194674,0.03303998,0.02936185,0.02871378,0.02114704,0.02351007,0.02571158,0.02171924,0.01312702,0.00865907,0.01686094,0.02048345,0.02750132,0.03741184,0.04150945,0.05720368,0.07711973,0.07194020,0.08630380,0.06733192,0.05235713,0.05553398,0.03810743,0.03873717,0.04089092,0.03348900,0.03972458,0.03995656,0.04562158,0.05868584,0.07081353,0.06230951,0.07342163,0.07827067,0.06879612,0.05010640,0.04139647,0.02884525,0.04044360,0.01551463,0.02010927,0.03153453,0.01750457,0.00985981,0.01048066,0.01510038,0.00751549,0.00946254,0.01032443,0.00500537,0.01453541,0.00910520,0.01188729,0.01268486,0.01038947,0.00922318,0.01611266,-0.00038471,-0.00046360,0.02202451,0.01282353,0.01254902,0.01790955,0.02790571,0.02547155,0.05742228,0.05044894,0.07795157,0.08306159,0.08745495,0.09747831,0.12272484,0.13634945,0.17092010,0.21264563,0.23580427,0.29873174,0.34057425,0.37277568,0.42295483,0.44448961,0.45945941,0.44828807,0.45679141,0.44393428,0.43304108,0.41929396,0.42369824,0.40726306,0.39350983,0.37560250,0.38271529,0.34552108,0.29470987,0.26245602,0.23428504,0.18329460,0.14945938,0.11945649,0.10744987,0.10265504,0.09195458,0.09852426,0.10438364,0.11762990,0.13272891,0.13964269,0.13085972,0.11381589,0.09913752,0.08243089,0.05907686,0.05572006,0.03151478,0.03507323,0.04548922,0.04382627,0.05627919,0.07237192,0.08872636,0.11336436,0.13951100,0.15146069,0.16433111,0.19080227,0.21318944,0.21990730,0.22411154,0.21232290,0.21238880,0.20643125,0.17682498,0.17328478,0.15377743,0.13664743,0.12678170,0.10924808,0.10101512,0.08462541,0.07627803,0.04930637,0.05240025,0.04876135,0.03922471,0.05169992,0.05307029,0.04889417,0.03453937,0.03893196,0.02687015,0.03247084,0.00674983,0.00383502,-0.00020382,0.00369812,0.00219362,0.00000781,0.00650121,0.00073931,-0.01117463,-0.00626774,-0.00937237,0.00848889,0.00435369,0.02022961,0.02635803,0.04350511,0.05764577,0.07098116,0.09696574,0.12294335,0.13582532,0.17067984,0.21176030,0.21960818,0.23938369,0.24877677,0.25602243,0.26649248,0.26354191,0.26677849,0.23147551,0.21527595,0.19325887,0.16018173,0.14877275,0.13717598,0.12669491,0.12678332,0.12253608,0.13221281,0.13283786,0.15726236,0.17045122,0.19627792,0.23792416,0.28577669,0.31203513,0.33511819,0.36447081,0.38085146,0.40922042,0.42422938,0.43894802,0.43901633,0.44496285,0.44649899,0.43425719,0.42944893,0.40524481,0.39963241,0.35084013,0.31759689,0.28037617,0.26686067,0.25006454,0.20948425,0.20354520,0.18772414,0.18436179,0.20369318,0.20933986,0.21384444,0.23195868,0.22285015,0.24163270,0.22966919,0.23628213,0.20090030,0.18884876,0.17455794,0.14689056,0.12138936,0.09319985,0.09217852,0.07402297,0.08016725,0.09819346,0.10766112,0.13019573,0.16199293,0.17655618,0.20734700,0.24494140,0.26708819,0.27609045,0.32985343,0.32577025,0.32116806,0.34315186,0.32044303,0.29331113,0.25852356,0.24690096,0.21978299,0.17801449,0.16342515,0.16243223,0.11816640,0.11700547,0.09596137,0.07468898,0.05682135,0.04622268,0.03037171,0.01512962,-0.00958260,-0.00539333,-0.01318657,-0.01573244,-0.01482032,-0.01517884,-0.01184787,-0.01689410,-0.00688173,-0.00095476,-0.00585879,0.00709356,0.01648265,0.01525319,0.01918620,0.02683145,0.02890358,0.04443965,0.04747845,0.04339006,0.05153118,0.04350567,0.04505754,0.04308129,0.04750324
0.01083846,0.00566301,0.00689946,0.02710762,0.02744973,0.02804997,0.01551042,0.02559269,0.02267342,0.01987568,0.01278696,0.00794522,-0.00296799,0.00512971,-0.00355642,0.00084958,-0.00184845,-0.00958761,0.00487133,-0.00726780,0.00471473,0.00010542,-0.00362039,0.00642757,0.01004237,0.03180065,0.03316342,0.02868574,0.03523485,0.02547885,0.02328385,0.02295427,0.03508168,0.03385078,0.03633874,0.05887743,0.07859805,0.10525379,0.13558331,0.15065086,0.17677515,0.18551670,0.18699691,0.17011987,0.15392750,0.12414877,0.10557430,0.06812728,0.06127069,0.04054460,0.01861317,0.01911183,0.00849092,0.00950611,0.00101290,0.00233430,-0.00110027,0.00390494,0.01036729,0.01154254,0.00204440,0.00755843,-0.00056812,0.00961119,0.00879112,0.00122331,0.00325057,0.00414866,0.01296752,-0.00386664,0.01776823,0.01987889,0.04647090,0.06809086,0.09475227,0.11007996,0.15029974,0.15340633,0.16511093,0.16150275,0.15041951,0.12534237,0.12550458,0.13103706,0.13892349,0.15190296,0.15992746,0.20181516,0.23314781,0.24139551,0.27656347,0.28792589,0.30170716,0.31234996,0.31648969,0.31513290,0.32605899,0.31892078,0.31378388,0.31871483,0.28638190,0.27763815,0.24691107,0.21487210,0.18680110,0.16141095,0.12360218,0.11411097,0.08505619,0.08528882,0.09828386,0.09892549,0.10759620,0.10379732,0.11948070,0.14295057,0.11755348,0.11247675,0.11394171,0.08535648,0.08039981,0.07525530,0.04919600,0.05307241,0.05183356,0.04823407,0.05597970,0.05135432,0.06538684,0.07873398,0.10727343,0.12141373,0.14021180,0.16507872,0.18730069,0.22334771,0.24903049,0.26770842,0.28422929,0.33264289,0.32578484,0.34279438,0.34615340,0.34559529,0.34339241,0.31784901,0.28044220,0.26168178,0.22583953,0.19455794,0.18050496,0.15357095,0.15022445,0.13998468,0.13565491,0.10545279,0.11513197,0.10570646,0.07693651,0.08085051,0.06193946,0.05803050,0.03741319,0.03524104,0.03250212,0.03493682,0.02650579,0.02722697,0.01577379,0.03462910,0.02595497,0.03260511,0.02718972,0.02884389,0.03872928,0.04159757,0.04514767,0.04387995,0.05010401,0.06463582,0.06571156,0.07708736,0.08990290,0.07655050,0.09554110,0.09442971,0.09350730,0.10763799,0.10980358,0.10480411,0.09934673,0.09416397,0.08869431,0.08053407,0.08035319,0.08166726,0.08722933,0.09227970,0.08136951,0.09264342,0.11522510,0.12838843,0.14427474,0.16937163,0.19552484,0.21312169,0.24512627,0.27257570,0.29342987,0.33077897,0.36627993,0.36017920,0.38869015,0.42306264,0.43295602,0.44066558,0.44018142,0.45735759,0.45086176,0.42415458,0.41756515,0.38885573,0.35490602,0.32652778,0.28931003,0.26374324,0.24425371,0.21340951,0.20371763,0.19774073,0.19992201,0.19202152,0.20150519,0.20229400,0.20471433,0.19770616,0.19121231,0.19097252,0.16910421,0.15957951,0.15147999,0.13763068,0.14194998,0.11864108,0.11818511,0.13553899,0.13802012,0.15584553,0.18248506,0.21645546,0.25648235,0.28925681,0.32762734,0.37383419,0.40536955,0.44254317,0.45792401,0.48336039,0.50908405,0.51198474,0.52105007,0.50958048,0.48167578,0.46750566,0.45844410,0.44938859,0.41385896,0.40098803,0.38626759,0.36573555,0.30781793,0.28497735,0.23540735,0.19418987,0.15247900,0.13403903,0.10332989,0.08477980,0.07040041,0.06112730,0.06047051,0.04368964,0.04542013,0.06145013,0.05933925,0.06522096,0.05699731,0.06687214,0.06557822,0.06159645,0.07187455,0.06616831,0.07048126,0.06526373,0.06827692,0.06902273,0.07800908,0.07875241,0.07433675,0.06869124,0.06526028
-0.00334891,-0.01415346,-0.01899092,-0.01366778,-0.01176593,0.00118300,-0.01638757,-0.00933652,-0.01156510,-0.00409819,-0.00510546,-0.01609102,-0.00240925,-0.00880496,-0.00976974,-0.01775096,-0.00908821,-0.01054937,-0.01379081,-0.00678800,-0.00990401,-0.01129521,-0.00717824,-0.00270793,-0.00371399,-0.00904174,-0.00321878,-0.00468512,-0.00095883,-0.00456057,-0.00805839,0.00455713,0.00895969,0.01795578,0.03403257,0.05439813,0.07793736,0.10598594,0.14259079,0.17313762,0.19378712,0.21289972,0.23863598,0.23379501,0.19288187,0.18547837,0.13907052,0.12790801,0.09577371,0.06431806,0.04477980,0.03502234,0.01851050,0.01609149,0.00983699,0.00261107,0.01553712,0.01181672,0.00704761,0.01105399,0.02338112,0.00558257,0.00662483,0.01360401,0.00276163,0.00394780,0.01491677,0.01569331,0.01606419,0.01787200,0.01362196,0.03244650,0.02780903,0.05810043,0.09425886,0.12127250,0.15518644,0.18570122,0.18408773,0.19680652,0.18517328,0.15833725,0.15129775,0.14181506,0.14204854,0.14759987,0.14388013,0.19472214,0.20008245,0.24484926,0.27090566,0.30503811,0.32156518,0.34463241,0.34789636,0.36154958,0.37842709,0.34976812,0.33949271,0.33787566,0.28829250,0.25958503,0.21563296,0.17770558,0.15364403,0.11656817,0.09603592,0.08416687,0.06446931,0.07243095,0.07315748,0.08577692,0.08230760,0.10651031,0.10341953,0.10714127,0.11846823,0.11210160,0.11888698,0.10719750,0.08548368,0.07535455,0.05924312,0.06194150,0.03758091,0.04496737,0.04031025,0.04232300,0.03928433,0.04077926,0.04887103,0.04994885,0.05437414,0.07586769,0.08149030,0.12428142,0.12956119,0.16840627,0.20492416,0.23271577,0.27315272,0.31307447,0.33949065,0.36582445,0.36385342,0.36991123,0.35598452,0.33385613,0.31549556,0.29156950,0.27695896,0.25142996,0.23466125,0.22378151,0.23564032,0.22110358,0.21924958,0.21688370,0.18960344,0.18412223,0.13923867,0.12248739,0.09053509,0.07586115,0.06675296,0.05908818,0.04711797,0.05640006,0.05250758,0.03493400,0.04169544,0.04015581,0.04474497,0.04569255,0.04855657,0.05398476,0.05082619,0.06030654,0.05944420,0.07213170,0.07754892,0.08679583,0.08713242,0.09607857,0.11610723,0.10602569,0.12195593,0.11985749,0.12255978,0.12992183,0.12439040,0.12502904,0.10710373,0.11291697,0.10217594,0.09718952,0.07822613,0.08616975,0.07499617,0.07647108,0.07083914,0.07166153,0.07949820,0.07965034,0.07427930,0.09090816,0.11372353,0.11769532,0.14919327,0.16707160,0.20360055,0.24684170,0.28720104,0.32338815,0.37064345,0.39978340,0.42894001,0.47265736,0.48765866,0.51053846,0.46275056,0.48512729,0.46172815,0.41921575,0.37038091,0.34163247,0.27793929,0.24306077,0.20990413,0.17061183,0.15183035,0.12948810,0.10940325,0.10075411,0.09242176,0.08627813,0.08174037,0.07367990,0.06508144,0.06720804,0.07278312,0.07944533,0.07103491,0.08731459,0.07458553,0.09491912,0.10050273,0.13462468,0.16064794,0.20116504,0.23934314,0.28222918,0.31739759,0.36911001,0.41471894,0.45737026,0.49408542,0.51633380,0.53257033,0.56433665,0.56065762,0.56368307,0.56617204,0.56236323,0.57460505,0.56457498,0.57006715,0.56174806,0.56980541,0.57385122,0.52055158,0.46422160,0.42609191,0.34858857,0.28821027,0.22481643,0.18668987,0.13580613,0.10812613,0.09605512,0.07477345,0.07349609,0.06701630,0.07141463,0.06976137,0.08230855,0.07338683,0.07856496,0.07023004,0.08577679,0.08336034,0.07559106,0.07142153,0.06281907,0.08962785,0.09045196,0.07918853,0.08369583,0.08981245,0.08412865,0.08393230
0.01559643,0.02282717,0.02538121,0.02500553,0.04325936,0.04854871,0.04745126,0.05079984,0.03228728,0.03643627,0.03446782,0.02753696,0.00270538,0.00347984,0.00125200,-0.00503015,0.00514434,-0.00909633,-0.01432191,-0.00120870,-0.01054455,0.00444459,0.00202457,0.01102069,0.02674942,0.04087604,0.05819064,0.06492880,0.08209123,0.06256858,0.06860275,0.04968162,0.03429185,0.03564976,0.02214233,0.04079153,0.05204130,0.07211399,0.08083851,0.09324244,0.11748393,0.11102248,0.12073215,0.12138760,0.11266845,0.10535761,0.07843180,0.06594908,0.04794836,0.03782737,0.02483585,0.01422825,0.01707850,0.01732303,0.01776425,0.01657020,0.01235393,0.01047453,0.01774767,0.01691104,0.01345028,0.01238387,0.00901810,0.01164911,0.01244266,0.01349104,0.01276215,0.01841066,0.00840995,0.00855711,0.01510839,0.02281282,0.03672039,0.04434978,0.05814966,0.08094357,0.08897492,0.10712220,0.10880588,0.12594006,0.11955911,0.11804320,0.10353763,0.11417123,0.12582680,0.13441011,0.14913673,0.15970595,0.19478521,0.20355973,0.20394871,0.23290737,0.24935071,0.27821119,0.28782688,0.29761530,0.33457914,0.36050859,0.39682129,0.41482179,0.43250382,0.44138460,0.40887400,0.40602367,0.36354703,0.30459808,0.25164880,0.20643772,0.17189104,0.11319378,0.10015833,0.09075634,0.06896742,0.06798122,0.06643976,0.06058409,0.06032843,0.06168707,0.05946418,0.05669900,0.05652310,0.05714749,0.06002791,0.06790574,0.06683259,0.06109943,0.07894798,0.10978808,0.11378310,0.14407854,0.16663521,0.18902817,0.22080144,0.26090721,0.28384860,0.31043269,0.32608924,0.35143990,0.34219383,0.36222646,0.35372550,0.34921931,0.34084593,0.30653728,0.30260294,0.27471329,0.26832594,0.25844327,0.20949788,0.20081891,0.17595569,0.16350074,0.16140645,0.15851747,0.15686342,0.15847981,0.15068905,0.14649096,0.13161567,0.13396952,0.10559535,0.09214190,0.08396493,0.06540807,0.06146127,0.06594784,0.05408307,0.06148974,0.06600913,0.05829969,0.05570127,0.06207574,0.05809273,0.06827092,0.07781017,0.08123341,0.09321685,0.09539705,0.10264686,0.11117909,0.13084988,0.15197631,0.16459860,0.16864060,0.20118628,0.21393721,0.22301319,0.21711187,0.22065531,0.24035729,0.23045043,0.21348504,0.21077430,0.20254652,0.18725155,0.18344656,0.16806446,0.16611711,0.17239983,0.18056703,0.19784022,0.21831970,0.24665364,0.27650321,0.30269500,0.34605182,0.37930002,0.41727012,0.44594572,0.46507545,0.48009678,0.52702780,0.50847967,0.51018581,0.50103169,0.50198566,0.46410596,0.45319619,0.42403484,0.36908580,0.35632997,0.33576865,0.29526816,0.29436004,0.25333206,0.23906317,0.22661485,0.22665114,0.22644591,0.24509921,0.26102158,0.29855862,0.31808728,0.35914857,0.36029036,0.36691977,0.36495211,0.38979303,0.36416342,0.34638862,0.30990413,0.28128559,0.24952116,0.21044990,0.19467742,0.16954785,0.14517509,0.15454286,0.15136998,0.16099581,0.18426964,0.19670273,0.24295214,0.26237202,0.31399326,0.34692834,0.39912773,0.41879109,0.47620631,0.50801333,0.51405452,0.50626824,0.52479074,0.49659349,0.46865515,0.44642916,0.43159398,0.41563699,0.38854157,0.35297666,0.34977130,0.30826766,0.27815491,0.23616872,0.20833181,0.17464627,0.14486670,0.12944389,0.12684685,0.11483729,0.10774593,0.11063110,0.10444811,0.10408716,0.11354105,0.11386707,0.11900773,0.12548361,0.11513965,0.11878594,0.12666382,0.13672390,0.12747881,0.13185225,0.13826765,0.13939612,0.13925297,0.13688019,0.14030761,0.13928030,0.15454336
0.04031396,0.05077205,0.07295646,0.07775857,0.08536683,0.10588956,0.09931846,0.09943568,0.09438882,0.09482930,0.06356335,0.04930593,0.04903697,0.03885507,0.03652866,0.03195163,0.03130162,0.03511354,0.03442152,0.02980288,0.03823623,0.03162293,0.04603708,0.05325729,0.07465945,0.09265151,0.10341993,0.13556784,0.13445997,0.12752928,0.11461229,0.09876802,0.07726771,0.06392066,0.05579159,0.05474672,0.05524015,0.04935532,0.05376826,0.05465314,0.06289915,0.06576984,0.06811641,0.06773211,0.05099235,0.05203168,0.05730182,0.05814510,0.04674613,0.05311847,0.04921121,0.03934135,0.04833481,0.04444912,0.05114599,0.05497354,0.04111961,0.05175968,0.04718926,0.04431782,0.03788728,0.04715581,0.04414102,0.04658343,0.04869329,0.05505845,0.05352674,0.05151053,0.05326792,0.06500730,0.06329313,0.06441033,0.06573893,0.05634843,0.07274032,0.07863979,0.07835127,0.08925843,0.08278672,0.08580367,0.08294883,0.08700339,0.09502681,0.09223826,0.11367474,0.12069748,0.14099202,0.15720562,0.17548876,0.20552191,0.22886236,0.26388289,0.30726460,0.33975447,0.41009015,0.45537753,0.47382945,0.55318322,0.59202601,0.61824924,0.63461005,0.64659274,0.62915727,0.57324396,0.50887271,0.44696772,0.37346574,0.30165545,0.25121456,0.20729709,0.17196613,0.16829379,0.14741736,0.14492967,0.13432838,0.14586910,0.15200845,0.14276693,0.13621818,0.13483288,0.12876651,0.10707570,0.12840882,0.11927491,0.11164486,0.14426231,0.14105860,0.16425350,0.18622576,0.20422416,0.23461299,0.26551943,0.29836515,0.33423237,0.35377572,0.38232455,0.38677089,0.39403169,0.37881059,0.34758976,0.34365018,0.30310785,0.27588899,0.24025623,0.23477878,0.19744776,0.17754622,0.18647899,0.15515393,0.16681459,0.18465834,0.18970040,0.22011146,0.22778173,0.24678860,0.25742917,0.27078028,0.25348769,0.25676626,0.21738102,0.19790000,0.18113196,0.15224467,0.13398883,0.12063791,0.11388215,0.11183987,0.10869292,0.11473723,0.10874284,0.11227979,0.11386482,0.11554369,0.10289054,0.10760935,0.10514088,0.12146498,0.10502678,0.11217488,0.11761977,0.11466104,0.12161829,0.13003846,0.11997707,0.12915832,0.14153640,0.14352764,0.14115061,0.12749642,0.13416357,0.14355811,0.13948427,0.13593183,0.14641791,0.14803023,0.14922630,0.17657170,0.18521678,0.20969725,0.21928085,0.26040791,0.30390479,0.34321848,0.37630058,0.42239102,0.48261819,0.53366208,0.57681837,0.62320969,0.70525836,0.73710031,0.75975445,0.75809504,0.79097055,0.78691365,0.77620493,0.78713949,0.74191348,0.69830145,0.68995819,0.65251211,0.61172867,0.53408609,0.49869691,0.45012642,0.41368583,0.41467450,0.38818951,0.38969163,0.39379080,0.40468181,0.42210436,0.45303666,0.49794862,0.50034422,0.52940207,0.52195558,0.52088491,0.48483198,0.47023897,0.42794562,0.39997572,0.35987430,0.31124444,0.29497589,0.23649231,0.25102241,0.26102065,0.28184728,0.30297634,0.33804786,0.37455138,0.40286278,0.47125851,0.52603778,0.57380148,0.60624040,0.62977539,0.64598853,0.64145847,0.63077822,0.61707388,0.58966945,0.53342627,0.53286855,0.49181635,0.46380879,0.45041883,0.42774611,0.41243866,0.39607573,0.34762745,0.30176125,0.27773534,0.24973534,0.21909248,0.19718594,0.17997835,0.16446400,0.17462007,0.15676315,0.17054191,0.17031127,0.15522381,0.15944148,0.16655086,0.15224648,0.17657776,0.16494783,0.14870899,0.15894741,0.17133132,0.18566983,0.17489313,0.17165533,0.17231890,0.18112535,0.17752220,0.17898872,0.16454898,0.17966972
0.02659507,0.03961846,0.04748363,0.04672716,0.06282155,0.07151771,0.06198697,0.06678967,0.06572699,0.05154889,0.04944077,0.03828257,0.04005476,0.03676795,0.02509921,0.02942792,0.02430900,0.03063324,0.03106396,0.02647150,0.02610999,0.03376068,0.02607570,0.04452231,0.04500213,0.05987643,0.07073229,0.08489535,0.08175263,0.07731370,0.06330585,0.06544080,0.05085680,0.05818526,0.05718657,0.04992918,0.07710161,0.08212362,0.09255058,0.10484968,0.12354776,0.12595333,0.12452796,0.13275099,0.11905341,0.11481229,0.08700896,0.08697317,0.06940094,0.05623275,0.04954832,0.03743796,0.03154560,0.04105972,0.03959336,0.02706208,0.03011719,0.02645720,0.03307872,0.03692505,0.03248911,0.03584373,0.03454790,0.02937098,0.03007560,0.03495000,0.03477593,0.04065358,0.04526832,0.03973709,0.03950377,0.04530157,0.05097422,0.05734838,0.07451320,0.09753335,0.10923777,0.10128148,0.12022815,0.11182489,0.11517083,0.09428891,0.09576907,0.08619305,0.09079747,0.09835685,0.11068832,0.12387314,0.15178066,0.17537870,0.20214391,0.21996207,0.27188125,0.30739902,0.34021963,0.37259060,0.41018704,0.44781340,0.46501046,0.47230481,0.49221226,0.44314991,0.42635301,0.37677287,0.32651711,0.27559565,0.21530088,0.17377139,0.14958965,0.11613903,0.09601458,0.08902412,0.09978242,0.08629252,0.10448872,0.09923573,0.09567551,0.09191693,0.09520549,0.09449655,0.07719415,0.07161905,0.05345416,0.06337735,0.06521158,0.07360931,0.07294899,0.08098978,0.10479279,0.11542773,0.13952771,0.16810909,0.18236006,0.20923797,0.22310181,0.25644641,0.25664566,0.26844332,0.28319423,0.29124375,0.28725737,0.27826451,0.27528681,0.27812643,0.24362039,0.24699223,0.22545192,0.20217196,0.18241902,0.19371584,0.18228848,0.19541077,0.20387537,0.20352163,0.23527633,0.23811139,0.24433160,0.22665971,0.20217818,0.17128315,0.14225077,0.11676083,0.08449076,0.06888177,0.06483329,0.06711622,0.04878849,0.05288708,0.04270949,0.05986648,0.05231815,0.05033470,0.05742382,0.04727138,0.04937393,0.05138000,0.05161263,0.06337079,0.05295812,0.06428792,0.06353754,0.07695573,0.07423807,0.07941201,0.08881800,0.07146442,0.07871766,0.07630394,0.09312619,0.08015198,0.08169654,0.07358528,0.07752160,0.08407513,0.09122744,0.08402544,0.08941869,0.09776020,0.10899141,0.12260972,0.15997197,0.15876903,0.19382847,0.20710819,0.25001417,0.28823347,0.31843018,0.34759222,0.38675087,0.42433664,0.46082839,0.48622619,0.51907245,0.55098805,0.57052425,0.57040925,0.57655707,0.57753363,0.57648376,0.52853449,0.47531564,0.46128608,0.41657784,0.37581704,0.33955864,0.29600639,0.28338455,0.26629609,0.24437226,0.24326559,0.24847181,0.26470092,0.27016579,0.26032614,0.27738213,0.28612248,0.26378684,0.28219707,0.24954586,0.23712981,0.20371997,0.20495182,0.16986775,0.16296155,0.13812213,0.12945676,0.16151164,0.16417804,0.19209002,0.21738593,0.24925755,0.28660662,0.34065748,0.38716972,0.44364860,0.46544417,0.49410514,0.52312906,0.53685279,0.53304364,0.52436237,0.52574555,0.51538725,0.49680694,0.49362669,0.47750437,0.46964293,0.45131652,0.42855312,0.40115450,0.37673814,0.34333871,0.27449616,0.23108415,0.19180063,0.13970408,0.11484442,0.10120647,0.08104831,0.07746286,0.08049424,0.07440563,0.07004065,0.06282172,0.05882702,0.07148984,0.06509949,0.06394227,0.07238539,0.07851659,0.07148989,0.07171540,0.08246599,0.06624002,0.07754068,0.07487601,0.07295690,0.06839386,0.07853803,0.07821445,0.07487959
0.06237409,0.07504903,0.08224159,0.09009642,0.08590481,0.11036086,0.11262097,0.11556671,0.11056566,0.08810010,0.09261699,0.07836712,0.07768029,0.06860135,0.07338610,0.06828164,0.05122276,0.05709564,0.05669113,0.06076101,0.05829501,0.06480191,0.06075203,0.08267607,0.09187447,0.10577185,0.11746967,0.12000873,0.13253322,0.14263261,0.11501026,0.11513639,0.09906641,0.08446120,0.08603937,0.09194017,0.09688120,0.10047356,0.11736825,0.11499280,0.14240227,0.13590648,0.13428696,0.13831163,0.15809380,0.14022181,0.12796224,0.11867059,0.09993870,0.08945355,0.08104628,0.09011894,0.07505879,0.06911934,0.06557852,0.06940094,0.07937671,0.07779842,0.07870221,0.07050819,0.07212503,0.06427042,0.07154506,0.06027593,0.07758496,0.07616513,0.07618046,0.06505063,0.07539332,0.07466024,0.09220498,0.08784620,0.08642406,0.10177649,0.10586085,0.11806761,0.12805983,0.13543465,0.14633523,0.15926942,0.15151133,0.16515707,0.15362252,0.14955700,0.16489715,0.19906505,0.21750740,0.25392271,0.28302261,0.29964993,0.34200767,0.37337975,0.38643646,0.41241651,0.44964403,0.48662151,0.49104107,0.50497039,0.51552012,0.50970139,0.53233308,0.52627077,0.50020273,0.46577235,0.42525835,0.37690939,0.32830408,0.28358996,0.24218788,0.20307636,0.19807926,0.19610370,0.18804421,0.20640928,0.22747905,0.22755558,0.23673091,0.22944507,0.23003356,0.20125472,0.19111351,0.15818039,0.16219699,0.14633168,0.13763829,0.14058415,0.14493796,0.15594066,0.17496502,0.19766272,0.21200669,0.23371898,0.25749657,0.29934705,0.30781031,0.32485277,0.35613429,0.35733075,0.36191804,0.35792759,0.34865541,0.34205150,0.33531143,0.32357629,0.30986913,0.28386541,0.26136875,0.24984113,0.22856085,0.22289725,0.20644963,0.21401105,0.18699951,0.20828205,0.22317208,0.21590661,0.20822178,0.21503025,0.20852042,0.18944245,0.18440895,0.15141360,0.13120414,0.12266423,0.12075603,0.11422528,0.10426723,0.11238660,0.10307347,0.10642389,0.10800857,0.11167810,0.10580321,0.10650386,0.10821615,0.10340892,0.09975824,0.10498515,0.11260183,0.11322740,0.10646120,0.12234108,0.12933464,0.10664395,0.11744145,0.11986908,0.11831868,0.10976372,0.12537222,0.12014631,0.13087781,0.12427363,0.12915961,0.12652069,0.13507065,0.14419933,0.14187715,0.14952055,0.16280371,0.19131490,0.20064334,0.23990293,0.26563998,0.29865650,0.34965567,0.37099113,0.41220385,0.45330342,0.49953377,0.54664898,0.57955350,0.61960652,0.67091701,0.68819190,0.70834460,0.69426399,0.71475945,0.71067285,0.72540080,0.70448970,0.67060587,0.66414040,0.59785179,0.56174768,0.50000106,0.49276068,0.44874157,0.40124172,0.39624456,0.36561503,0.37812611,0.36338491,0.37865157,0.40591459,0.39566779,0.41768263,0.40646108,0.41243336,0.39801133,0.38386952,0.33822866,0.32627192,0.28660766,0.28393353,0.25437920,0.25836831,0.25131245,0.24879401,0.28123251,0.30520718,0.33496650,0.38885018,0.42332600,0.47494782,0.50005357,0.55360743,0.58896145,0.60922857,0.61597023,0.65133727,0.61283292,0.59295926,0.56264528,0.51961606,0.49703603,0.46034542,0.43101247,0.43625547,0.41143907,0.37909803,0.35157895,0.33615953,0.29292367,0.26531524,0.24821158,0.19942871,0.17373586,0.16760751,0.14764146,0.14032376,0.13173508,0.13561874,0.12519423,0.14815714,0.12396318,0.12760255,0.13365356,0.12210265,0.12883506,0.12069946,0.11205215,0.12560094,0.12656487,0.11756074,0.12591245,0.12639092,0.12831900,0.12110666,0.13006350,0.12506597,0.12214636
0.06662014,0.06242226,0.08054513,0.07443084,0.06862832,0.06842795,0.07238361,0.07116079,0.06407740,0.06423959,0.06108156,0.05679019,0.05353603,0.04584905,0.04887655,0.04138994,0.05049182,0.04950060,0.04318491,0.05414200,0.04008556,0.04009549,0.04255839,0.05184805,0.05632278,0.06709235,0.06997467,0.07343538,0.07768181,0.08051544,0.07469512,0.06752447,0.05876324,0.06051684,0.05511140,0.07005213,0.06539461,0.08141359,0.08968436,0.09081926,0.11744981,0.12163807,0.11086456,0.11765329,0.12222818,0.10386458,0.09500084,0.08843927,0.08095760,0.06963998,0.06773370,0.05226018,0.04091701,0.05228540,0.05001496,0.03789784,0.04712982,0.04963072,0.04746973,0.05541766,0.04090236,0.03868259,0.04878970,0.04443990,0.04450984,0.05611919,0.04064182,0.04832063,0.06090308,0.05882268,0.05156436,0.04456906,0.06084380,0.06934299,0.08575151,0.08364358,0.09840442,0.12154936,0.12886510,0.13133299,0.14211586,0.15355393,0.15396700,0.15852478,0.18162149,0.20714709,0.22524670,0.26762359,0.29018853,0.32150536,0.34564167,0.36312087,0.40053650,0.41597358,0.43554569,0.45664484,0.48199276,0.49536476,0.50394015,0.48116853,0.47778629,0.43954725,0.41787865,0.37744028,0.33693793,0.28659746,0.24162748,0.20939362,0.15739952,0.14650113,0.12719352,0.11189759,0.09906513,0.09643621,0.11148354,0.11219570,0.11652880,0.11234840,0.10527917,0.09361828,0.10322025,0.09900901,0.08716764,0.08846239,0.09468882,0.08047571,0.07838594,0.09759771,0.10337826,0.11284051,0.13408716,0.15382257,0.15175270,0.17240727,0.18501082,0.19691321,0.22483418,0.22706881,0.25665751,0.24766163,0.23700890,0.26252231,0.25114964,0.24186383,0.24237250,0.23617606,0.21662864,0.20866727,0.18727637,0.18267863,0.18563757,0.18697633,0.19755474,0.21679501,0.24065922,0.26038528,0.24906492,0.25286347,0.23530851,0.21304618,0.18853824,0.16507093,0.15009157,0.12246766,0.10986002,0.09554853,0.08935769,0.08974382,0.08348006,0.08054558,0.08862758,0.09468611,0.09517546,0.09698151,0.10168341,0.10359876,0.11071102,0.12972351,0.14968710,0.16206595,0.18142721,0.18900339,0.21453014,0.23881469,0.26802431,0.27349796,0.29861790,0.29108902,0.30972810,0.32053817,0.31045153,0.29512989,0.29233930,0.25969903,0.25563534,0.23801852,0.20541857,0.19326484,0.19852840,0.19551517,0.18921086,0.18390510,0.20883712,0.21623127,0.24353035,0.25292653,0.26650236,0.30356913,0.35202374,0.36543873,0.42146282,0.43922192,0.46858801,0.50951061,0.52949279,0.55376803,0.54369381,0.57236476,0.55732877,0.56540105,0.52342018,0.52565507,0.47152829,0.45469089,0.42377757,0.37515049,0.32267524,0.29777677,0.28693401,0.26613536,0.25662281,0.24876044,0.24868673,0.24367202,0.25648954,0.28461197,0.27710771,0.27706171,0.25807324,0.25149137,0.22601255,0.22444523,0.19806499,0.19604280,0.18834174,0.17112483,0.18966975,0.18163496,0.19416292,0.20976320,0.25530954,0.28041507,0.32927585,0.38015075,0.42069222,0.46759648,0.48969476,0.50238520,0.52986989,0.53224718,0.53105118,0.53696395,0.52580571,0.50642976,0.49302968,0.48273506,0.48711076,0.46704988,0.46659799,0.45179943,0.42433126,0.40373726,0.35292922,0.30752423,0.27278850,0.23380757,0.20463173,0.18333158,0.16636087,0.15926988,0.14227066,0.13371314,0.14208625,0.14035132,0.14205998,0.15323009,0.14514727,0.16268086,0.16094878,0.16639078,0.17446187,0.17567648,0.16617417,0.18572902,0.18389461,0.19080721,0.18422721,0.19020714,0.20854923,0.19669473,0.19208134
0.02576575,0.04300710,0.04068348,0.04825538,0.06103393,0.06420231,0.07373918,0.06709269,0.05119723,0.04284883,0.05295676,0.03880965,0.02228964,0.01232835,0.01410776,0.01153879,0.00415689,0.01149866,0.00529327,0.01253374,0.01269994,0.02000262,0.02552699,0.02728074,0.04079387,0.05204312,0.08322745,0.08892591,0.09850859,0.08815627,0.08085247,0.06801743,0.05400369,0.03470851,0.03175251,0.02539494,0.02526866,0.03414630,0.04416006,0.05115737,0.05311651,0.05944723,0.04873925,0.05638597,0.05749689,0.05008564,0.05036598,0.03307502,0.02910300,0.02570223,0.03270923,0.02755583,0.02916832,0.01497532,0.02872227,0.02058494,0.02355549,0.02606255,0.03221477,0.02393228,0.03205348,0.02538208,0.02859708,0.04791244,0.03909332,0.03748849,0.03646240,0.03117455,0.02585249,0.03622614,0.03838812,0.04295306,0.05056510,0.03807199,0.05497911,0.05770338,0.07699624,0.08917495,0.08339684,0.09213489,0.10047847,0.11249521,0.12074933,0.14168122,0.16434784,0.17432427,0.20956336,0.22910308,0.26151104,0.27128232,0.30249105,0.31306099,0.33342976,0.36524125,0.38796397,0.38719151,0.41872993,0.45280965,0.48573348,0.50156730,0.50609398,0.49260992,0.49103353,0.47323668,0.41398395,0.35617750,0.30963158,0.23474591,0.18342106,0.15715553,0.13756685,0.10432597,0.10310951,0.10050947,0.10302115,0.09061879,0.08006121,0.09559628,0.08999080,0.09897958,0.07792406,0.08806777,0.08889354,0.09427117,0.09218790,0.10807654,0.11358835,0.12725851,0.15495796,0.17439122,0.21203883,0.23640757,0.27464158,0.28122815,0.31106423,0.33936265,0.34203535,0.35168624,0.34287058,0.32511044,0.29966059,0.29360209,0.25916303,0.24910571,0.20883887,0.21751550,0.19385837,0.17624804,0.16243588,0.15603076,0.15724512,0.16083423,0.16708801,0.18799327,0.19314109,0.19519333,0.20467631,0.17533372,0.19036949,0.16587381,0.15839932,0.13140833,0.12334646,0.10431591,0.09035497,0.10958724,0.09573324,0.09830573,0.09046111,0.10183693,0.08658513,0.09354032,0.10810756,0.10904094,0.11960138,0.12226133,0.13518068,0.15659801,0.16055197,0.18762241,0.19063422,0.22534614,0.23580048,0.26166537,0.28083211,0.30761891,0.31335604,0.33197871,0.32446660,0.31982212,0.32121299,0.30744589,0.29465554,0.27436432,0.26620870,0.24334481,0.24111679,0.24144785,0.23127315,0.24685764,0.25859153,0.28890209,0.30278729,0.34878383,0.38098411,0.41376182,0.44959688,0.49038300,0.52020129,0.57226996,0.57991606,0.58613046,0.59313006,0.60640818,0.61253020,0.58432019,0.56527487,0.53063839,0.52868846,0.48031657,0.42190313,0.41113690,0.37343417,0.34316070,0.33036253,0.30639672,0.28664958,0.29861195,0.28971794,0.31483408,0.33300255,0.34652103,0.38047164,0.41082774,0.41031649,0.45236261,0.45607912,0.43435853,0.40697547,0.39562699,0.36387458,0.33253011,0.31172588,0.26661119,0.24747228,0.22804459,0.20867463,0.21226288,0.21023903,0.22637114,0.23540363,0.26847149,0.30031778,0.33372211,0.38179079,0.41010463,0.44849624,0.47227875,0.50572065,0.50937423,0.51618441,0.50582288,0.47231452,0.46262394,0.43333231,0.42937175,0.40687838,0.38834498,0.37006217,0.34792589,0.32262697,0.30991003,0.27245617,0.23927267,0.22549506,0.20388248,0.17984745,0.16892373,0.16991945,0.17312347,0.16929461,0.16127794,0.16779915,0.15700288,0.16541261,0.18139231,0.18979108,0.18646161,0.17964065,0.18894366,0.19483492,0.19635895,0.20035850,0.20896290,0.20541602,0.20777201,0.21358264,0.22211920,0.21164576,0.22528524,0.22602187
0.00339032,0.00930229,0.01411949,0.01420835,0.01898618,0.02153655,0.02178955,0.02131067,0.01658300,0.00726764,0.00634592,-0.00182899,-0.00571980,-0.01489787,-0.01459066,-0.02062779,-0.02125140,-0.02082054,-0.03119970,-0.02642770,-0.02306927,-0.02823191,-0.01593280,-0.00759276,-0.00343080,0.00475817,0.01274855,0.02341067,0.02359168,0.02955255,0.02690115,0.01881997,0.00938029,-0.00144774,-0.01272304,0.00097190,0.00575303,0.01978564,0.03474983,0.05493335,0.05676078,0.08004154,0.06924181,0.07239964,0.07361386,0.05925233,0.04215986,0.02198229,0.01889812,0.00101047,-0.00234903,-0.02273676,-0.02327349,-0.02274982,-0.02954138,-0.02558983,-0.03147623,-0.03187249,-0.02595814,-0.02806974,-0.02220529,-0.03928681,-0.03166283,-0.02901434,-0.02733927,-0.03202255,-0.02775221,-0.03181851,-0.03926555,-0.02729796,-0.02038790,-0.01601326,-0.02086642,-0.00957882,0.00907131,0.02841426,0.02960714,0.05273952,0.07423240,0.08187599,0.06517407,0.08097575,0.08751798,0.09833492,0.11551409,0.13901823,0.16807396,0.18611389,0.21059958,0.24528704,0.25728879,0.26765823,0.27958071,0.28003906,0.27361287,0.27724672,0.26967480,0.27851265,0.27487122,0.28051480,0.28528830,0.28268276,0.25528794,0.24272449,0.21042529,0.17723743,0.13940796,0.10292140,0.08757501,0.04969307,0.03467081,0.00830608,0.00679160,-0.00057539,-0.00083888,-0.00540064,-0.00314301,-0.00086933,-0.00054780,-0.01742392,-0.00950633,-0.02872392,-0.01305841,-0.02016412,-0.01712069,-0.00884729,-0.01637369,0.00142568,0.01235652,0.03001658,0.04186223,0.05997266,0.08620506,0.09983135,0.14493543,0.15952967,0.17256559,0.17811450,0.18938561,0.19504107,0.19705415,0.19507662,0.19367511,0.20208952,0.17139391,0.17765973,0.14649266,0.13817486,0.10004247,0.09064410,0.07628683,0.05196977,0.05355519,0.03858805,0.04633111,0.04409781,0.03497057,0.04037207,0.02434421,0.02182805,0.01279715,-0.00066954,-0.01120964,-0.01672912,-0.02215579,-0.02598655,-0.03279090,-0.02988340,-0.03110740,-0.03272587,-0.04021137,-0.02906960,-0.02699242,-0.01920164,-0.01989168,-0.01455509,-0.00173844,0.01995303,0.03417975,0.05051641,0.07231143,0.10007954,0.12120774,0.12843834,0.18394833,0.19826235,0.20202710,0.22609343,0.23652333,0.23484338,0.22225155,0.21905155,0.20374993,0.18446021,0.16183916,0.12926271,0.12808872,0.11580839,0.09078849,0.07941891,0.06493009,0.08662801,0.09000784,0.12342040,0.13427565,0.14536057,0.15625165,0.18866545,0.21386574,0.23410023,0.24614052,0.26431350,0.26631596,0.27133893,0.28109704,0.27730671,0.26745712,0.25535965,0.23874546,0.22554901,0.19987787,0.18174537,0.15906083,0.12516647,0.11016922,0.08604563,0.08458594,0.08049921,0.07858737,0.08043762,0.08863663,0.10700605,0.11468996,0.12644158,0.14076562,0.15943704,0.16273075,0.15713622,0.14926899,0.14428324,0.10566978,0.08799946,0.07643695,0.06413805,0.03524981,0.02204699,0.00009919,0.00538942,0.00244213,0.00935569,0.03134360,0.04457598,0.05679309,0.08201098,0.11309202,0.14262714,0.17641256,0.20677382,0.23570148,0.25836546,0.28437348,0.27988218,0.26845055,0.26935427,0.26382257,0.23593341,0.21864998,0.21314396,0.19840745,0.18706797,0.16494226,0.13689395,0.11668269,0.08446119,0.04841002,0.02799515,0.00153732,-0.00796596,-0.01747378,-0.03334033,-0.03620054,-0.04121105,-0.04563003,-0.03443955,-0.02997115,-0.03061186,-0.03513900,-0.02019640,-0.00908303,-0.01377511,-0.01327355,-0.00510350,0.00189732,0.01124701,0.00460484,0.01678300,0.02002053,0.00953837,0.02480255,0.01643212,0.02503104
-0.03583970,-0.03123695,-0.02451440,-0.01341124,-0.00952859,0.00339245,0.00523915,-0.00845977,0.00086878,-0.00437157,-0.01900964,-0.02472301,-0.03267379,-0.04566884,-0.04118089,-0.04479787,-0.04422920,-0.03609250,-0.04310658,-0.04637822,-0.03967836,-0.03963746,-0.04052475,-0.01937507,-0.00401434,-0.00012813,0.01782060,0.03537042,0.03540697,0.02658196,0.02367384,0.02638709,0.01530149,0.01181456,0.02259044,0.03310849,0.07270951,0.11309954,0.15751419,0.20347725,0.22859068,0.24691163,0.25395553,0.23077381,0.22901746,0.19332794,0.14905864,0.11128782,0.06493879,0.02906497,0.01352273,-0.00449136,-0.00773219,-0.01336431,-0.02387667,-0.01129731,-0.02863765,-0.02064409,-0.01448607,-0.02842274,-0.01307333,-0.02018058,-0.02976980,-0.01866128,-0.02493092,-0.02423652,-0.02682111,-0.01601989,-0.01192274,-0.01294499,-0.00338385,0.01658993,0.02792378,0.04804547,0.08100612,0.13401366,0.17073727,0.20196662,0.21842574,0.20984435,0.18348003,0.15713776,0.12610398,0.10147085,0.09178669,0.10187977,0.10924382,0.12790106,0.13572711,0.16135276,0.16841009,0.17865421,0.19594972,0.20336055,0.20717798,0.20921022,0.24617509,0.26247626,0.28316341,0.29906928,0.31534983,0.32310592,0.32478317,0.30230914,0.26674775,0.23520654,0.18549626,0.14370912,0.10733885,0.07952694,0.06059428,0.03965373,0.04341004,0.04953070,0.04703241,0.04304333,0.03794742,0.04088444,0.03589850,0.04288242,0.02852517,0.03626945,0.02980934,0.04345177,0.04137337,0.03384601,0.04163705,0.07217166,0.09516030,0.11018111,0.13891605,0.18717352,0.20696635,0.25224782,0.26706611,0.33726436,0.37342197,0.40242475,0.43243736,0.47207718,0.50200367,0.51591388,0.53763396,0.52549189,0.52919959,0.49292995,0.47539804,0.41117883,0.36057151,0.31793459,0.26427375,0.21139747,0.17414846,0.14227489,0.12472997,0.10500965,0.09057997,0.08926346,0.06934787,0.06083587,0.05531410,0.05698679,0.04892975,0.02144392,0.02539245,0.02640314,0.03103187,0.03295007,0.02589766,0.03536675,0.02037875,0.03758255,0.04131708,0.03173514,0.04102132,0.04775541,0.04506798,0.05944625,0.06214267,0.07587414,0.08968830,0.09730429,0.10661978,0.12196488,0.12396076,0.13996552,0.15143674,0.14759419,0.14597269,0.15847920,0.15742545,0.14575466,0.12487581,0.12747349,0.12711001,0.12797116,0.12736937,0.12021768,0.13587737,0.14627154,0.15980369,0.17016255,0.19557287,0.23336320,0.25657103,0.29645772,0.31309064,0.34993757,0.37864392,0.39959572,0.41609557,0.42164843,0.42385745,0.40839826,0.40087479,0.36884664,0.35551310,0.34587602,0.31446600,0.29274002,0.27136878,0.24135592,0.21865138,0.20850735,0.18952368,0.17587605,0.17748278,0.16987445,0.16244425,0.19334654,0.23424893,0.24714970,0.25447984,0.29330461,0.30940559,0.34030402,0.33554468,0.31894853,0.30551615,0.27863163,0.25910167,0.23030289,0.18682262,0.17848464,0.14884522,0.12301536,0.11928444,0.11479075,0.12653340,0.11680741,0.14615204,0.17028810,0.18563678,0.22301630,0.28189034,0.32851552,0.40421598,0.46922943,0.52753129,0.56402312,0.62259188,0.62313096,0.66085627,0.61305042,0.60256293,0.57916104,0.55661823,0.53550310,0.50360258,0.48074472,0.46051914,0.40940948,0.35604825,0.29654622,0.23240185,0.20371178,0.14990361,0.11000657,0.10640211,0.09562284,0.07624436,0.07020089,0.07164269,0.07583422,0.07905004,0.07075407,0.07699159,0.08352851,0.06459857,0.08082518,0.07738281,0.08128757,0.09163876,0.09289144,0.08646590,0.09277553,0.09307414,0.10271032,0.09429557,0.10324333,0.09175380
0.04213977,0.05781807,0.06295066,0.07746448,0.09969201,0.10206856,0.11485214,0.10948399,0.10571949,0.07564114,0.07637985,0.06262056,0.06263074,0.02734174,0.02885853,0.02502796,0.02315782,0.01956022,0.01175880,0.01633777,0.03217969,0.02431542,0.03803856,0.05191689,0.05547125,0.08509437,0.09880497,0.11776640,0.13343300,0.14159529,0.12086129,0.10119823,0.09226062,0.06155781,0.07108163,0.07380296,0.08090641,0.10876122,0.12030539,0.15024590,0.15895449,0.18042414,0.18237102,0.18810161,0.18299693,0.17334212,0.12774482,0.10873330,0.09280272,0.07702928,0.05990661,0.04294456,0.03305383,0.04060453,0.02971163,0.03374372,0.01967468,0.01595979,0.02627117,0.03348088,0.02445031,0.03055071,0.02498514,0.02620020,0.02940500,0.02702306,0.03303793,0.02623120,0.02069158,0.03586996,0.02499955,0.03310590,0.04821475,0.05446292,0.08818482,0.09000232,0.12512520,0.13735508,0.16351423,0.15644563,0.15429860,0.15696698,0.12325948,0.10902619,0.11579317,0.10357662,0.11893387,0.13593239,0.12310843,0.15344168,0.17259649,0.17757344,0.20337498,0.22244739,0.24548326,0.28794583,0.32219895,0.35262691,0.40881253,0.46436673,0.48356064,0.51706591,0.52936866,0.55803403,0.50189262,0.45266113,0.39037258,0.29939484,0.25639990,0.19797769,0.14242597,0.10786061,0.08508775,0.08050994,0.07744625,0.07699836,0.07152494,0.08074140,0.08205966,0.06785852,0.07617348,0.06836074,0.06463492,0.07327133,0.07031556,0.08933519,0.09488974,0.10391688,0.14306425,0.17002983,0.20547874,0.25756657,0.29269694,0.33920587,0.40791606,0.41352281,0.43080043,0.47090289,0.50599353,0.50361742,0.49464167,0.50079500,0.45426201,0.44439173,0.43248643,0.37651899,0.36323134,0.32039586,0.27882754,0.26517401,0.21693673,0.19253907,0.16807424,0.15275226,0.13914717,0.13963218,0.12288104,0.11921135,0.10946163,0.10929997,0.08379013,0.08364554,0.06038680,0.06398834,0.04622576,0.05499032,0.05440081,0.05715285,0.05289828,0.04621035,0.04212771,0.05163885,0.04730568,0.04769877,0.06040759,0.05330961,0.05563588,0.05498948,0.06512316,0.07844063,0.08699219,0.09085936,0.09285790,0.10765606,0.12218707,0.12351466,0.12905869,0.13680532,0.14185988,0.14674710,0.14775797,0.13532690,0.13791620,0.13859457,0.13074494,0.12979503,0.13866202,0.13620528,0.16281147,0.17674044,0.19324611,0.22952620,0.26457495,0.31539461,0.36531966,0.40952620,0.47789210,0.48204183,0.54057361,0.59976264,0.62859589,0.64134499,0.64323689,0.64792553,0.62008001,0.59241283,0.54551184,0.53353499,0.47973039,0.44113925,0.40758000,0.35550969,0.31660061,0.28364238,0.26285016,0.25998300,0.23025615,0.24566686,0.24301348,0.26532751,0.30087452,0.32388369,0.38572841,0.40727921,0.45036206,0.49117672,0.50578098,0.50276706,0.49325707,0.47472062,0.42967185,0.37709085,0.33480163,0.28344196,0.24947188,0.20515381,0.17600605,0.14179977,0.14294745,0.14583863,0.14694374,0.16188590,0.18557849,0.22387517,0.25675971,0.34314958,0.36389080,0.43715130,0.48392995,0.55031415,0.58662987,0.61111409,0.61524640,0.58380926,0.56840206,0.53051341,0.49131910,0.46013929,0.40118396,0.39058294,0.36069225,0.31815233,0.30193247,0.26860797,0.22785612,0.17993845,0.15134592,0.12806793,0.09348434,0.09257116,0.07442454,0.07920107,0.07840113,0.07609322,0.07167135,0.07254614,0.07142721,0.06582378,0.06301250,0.07664291,0.07773681,0.07351314,0.08059529,0.07584162,0.09369887,0.09297104,0.09211738,0.08623804,0.09283672,0.08500869,0.09019064
-0.00467204,-0.00984620,0.00055568,0.00802779,0.00664046,0.02634291,0.01866145,0.02218960,0.00650914,0.00305582,-0.00326421,-0.00728395,-0.01500031,-0.01544027,-0.01984124,-0.01955593,-0.02251258,-0.02214506,-0.01731568,-0.01997034,-0.00981564,-0.01929633,-0.01945337,-0.01044537,-0.00397269,0.00578953,0.02047683,0.03437731,0.02981415,0.03398713,0.03031921,0.01899746,-0.00043847,-0.00332671,0.00759926,0.01370801,0.01698230,0.03318519,0.04270749,0.06478808,0.07723400,0.07216557,0.08425454,0.08363875,0.06980379,0.07323895,0.04738504,0.03057519,0.01959193,0.01606452,-0.00618164,0.00429158,-0.00310126,-0.00827309,-0.00799637,-0.00895173,-0.00948132,-0.00897874,-0.01452024,-0.00192245,-0.00165310,-0.01052439,-0.01129009,0.00100998,-0.01130126,-0.01340452,-0.01228767,-0.00426271,-0.01520871,-0.00347562,-0.00117859,0.00179497,0.01065127,0.01419494,0.03083149,0.04300174,0.05329171,0.07061784,0.07877619,0.07678931,0.08094730,0.08384785,0.07782271,0.08216740,0.09424453,0.10030820,0.13042654,0.16617839,0.19462117,0.21230005,0.22378968,0.27592581,0.28809223,0.31479605,0.32912389,0.33690386,0.34832835,0.36141442,0.36203400,0.36601777,0.38449690,0.35891369,0.34436236,0.32129231,0.27402109,0.23960771,0.18434914,0.16310963,0.12982748,0.10936748,0.09425428,0.09555694,0.09968092,0.10783895,0.12139574,0.13479226,0.12688338,0.12941338,0.11962849,0.11747022,0.09450115,0.08045416,0.06525389,0.04106808,0.04631360,0.05246406,0.05548203,0.05760411,0.06753896,0.07523004,0.10881268,0.12472333,0.15271167,0.17917139,0.19446702,0.21822263,0.23794926,0.24044637,0.24424081,0.23385413,0.25081476,0.26735593,0.24627387,0.23575262,0.22529405,0.21289089,0.20761528,0.16582015,0.14171621,0.14233755,0.12733224,0.12212779,0.11350927,0.12099370,0.12034744,0.11617511,0.12317257,0.11804210,0.11182875,0.09224910,0.08521201,0.05842046,0.04880546,0.05176379,0.03042194,0.02651891,0.03144436,0.02174670,0.01669792,0.01693763,0.03061058,0.02514743,0.02259245,0.01843441,0.02011842,0.02635264,0.02806007,0.02721192,0.04037549,0.03426718,0.02932678,0.05058106,0.04964834,0.06006599,0.06072856,0.05304993,0.07908444,0.06859808,0.06476051,0.07249863,0.06751926,0.07105612,0.06912256,0.06565041,0.06584273,0.06874043,0.08418708,0.07572082,0.10074797,0.09575238,0.11449543,0.12410888,0.16360580,0.18124874,0.21197490,0.25656878,0.27254450,0.31806993,0.36100881,0.39311011,0.41844269,0.44238157,0.46984153,0.50188840,0.49642660,0.54254716,0.53509282,0.52206560,0.54279173,0.51457903,0.49149316,0.47925585,0.43786151,0.41151086,0.39214094,0.34650013,0.31999534,0.27817475,0.28354560,0.24882524,0.24559236,0.24644846,0.25350067,0.26576711,0.27610604,0.28684942,0.28457720,0.27338497,0.25448513,0.24894453,0.22455815,0.20184843,0.18602372,0.15521041,0.14160939,0.14612675,0.15028098,0.16405524,0.16934221,0.20448143,0.24042217,0.26721926,0.28817613,0.34945446,0.39255075,0.41259204,0.46389772,0.48258547,0.48739044,0.48865785,0.49211631,0.45128679,0.44669092,0.41485621,0.40528608,0.38714871,0.36897004,0.34300930,0.33305408,0.31968725,0.27197289,0.27422122,0.24822283,0.20657925,0.16808808,0.12710235,0.10436195,0.10288244,0.07471373,0.06693094,0.07444315,0.07062810,0.06808575,0.06747398,0.06561051,0.06665307,0.06457520,0.06516473,0.07581165,0.07918772,0.07383001,0.07878456,0.06362561,0.07016117,0.06621320,0.07538601,0.07352485,0.07667502,0.07025910,0.07831468,0.07750510
0.01339367,0.01800290,0.02435079,0.02379776,0.03072669,0.03368798,0.03354726,0.03721601,0.02576182,0.01698391,0.00995407,0.00304222,0.00612553,0.00339707,-0.00160024,-0.00906673,-0.00208830,-0.00197813,-0.00420766,-0.01251705,0.00075562,0.00438004,0.00092646,0.01239370,0.02729453,0.03118546,0.04792689,0.04409731,0.05595148,0.04786346,0.03565269,0.02427339,0.03237985,0.02245052,0.02204296,0.02488955,0.03997825,0.04613661,0.05848668,0.07571053,0.07781101,0.08828892,0.08368177,0.09303669,0.08053948,0.07076597,0.05274825,0.04129674,0.03178088,0.02620445,0.02550292,0.01982324,0.01329259,0.01871496,0.02025223,0.01150812,0.00921586,0.00500448,0.01673437,0.01795879,0.00750029,0.01283646,0.01471040,0.02405309,0.01921328,0.01725818,0.00783532,0.01437505,0.01826073,0.01798351,0.02067151,0.01267900,0.03754384,0.03422626,0.05547332,0.05244961,0.07998307,0.10089644,0.11724094,0.11721729,0.12020001,0.12272421,0.13954621,0.14847958,0.17475866,0.21765902,0.25342096,0.28707955,0.33041363,0.36196304,0.37309159,0.40881659,0.40860027,0.42798423,0.40478092,0.41855524,0.40304124,0.41337749,0.39841623,0.38236968,0.37891213,0.36036783,0.32494837,0.28419192,0.24184312,0.21725816,0.17977503,0.13240146,0.12558297,0.11119262,0.10598393,0.09643940,0.11086419,0.11992011,0.12635343,0.13226974,0.13446893,0.13537302,0.10866304,0.11550812,0.10548837,0.08695752,0.07149800,0.06599783,0.05555838,0.06739464,0.07217081,0.06505590,0.09398231,0.10095552,0.13297492,0.12948623,0.14694134,0.15998343,0.19445541,0.19540504,0.22736620,0.22762196,0.23023471,0.23694539,0.22518404,0.22946959,0.23262034,0.21002295,0.20560338,0.19434730,0.18652620,0.16629034,0.14265631,0.14356728,0.13411486,0.13455851,0.14335939,0.15178320,0.14137700,0.14394465,0.14145835,0.13753270,0.11772044,0.10877300,0.08185537,0.07399967,0.06325621,0.06410044,0.05235247,0.05049628,0.04474065,0.04216112,0.04751879,0.04254443,0.04457310,0.05744969,0.05653343,0.05409332,0.06652877,0.07189779,0.07142026,0.09178487,0.10540622,0.13136795,0.13241619,0.15390032,0.17607854,0.18624729,0.19614584,0.23196421,0.23367160,0.23845580,0.24291675,0.23210987,0.22472539,0.23533540,0.20855017,0.19300880,0.18193053,0.16659241,0.16712390,0.13784500,0.13763834,0.13950211,0.14977965,0.17308573,0.17803233,0.20263517,0.22726818,0.24591929,0.28739344,0.31141139,0.36246065,0.36294101,0.40132539,0.42083527,0.45659901,0.47925030,0.49075713,0.50521442,0.50586979,0.50741536,0.49240968,0.48565701,0.46342530,0.43662345,0.39567056,0.37136858,0.33350221,0.30025735,0.27832476,0.24380283,0.22713422,0.22634258,0.21973569,0.24628840,0.23705195,0.23858459,0.24918091,0.26353896,0.22556409,0.24682742,0.21852469,0.20001626,0.19753258,0.16460147,0.15672371,0.15529461,0.14252397,0.13826902,0.13593594,0.16172191,0.19142504,0.22061652,0.23966992,0.26464163,0.31762118,0.34428419,0.37948681,0.42331951,0.43965726,0.43664895,0.44168177,0.44265961,0.43591701,0.42755269,0.38275283,0.37121108,0.34909290,0.35073669,0.33783515,0.29766256,0.30131629,0.28204566,0.27007494,0.21988177,0.20521707,0.15534228,0.13463705,0.12218381,0.09305583,0.08580611,0.07401073,0.07673785,0.05617536,0.06836806,0.08477470,0.08219346,0.07021250,0.07514111,0.07416485,0.08508416,0.08101979,0.08454851,0.08841499,0.10630938,0.10221475,0.10249831,0.11518343,0.10902914,0.10971309,0.11184970,0.11209926,0.10976131,0.11051758
0.04617333,0.05893018,0.04345681,0.04659723,0.04527352,0.04675954,0.04369788,0.04352549,0.05362528,0.04335878,0.04203776,0.04081942,0.03360167,0.01907069,0.03223302,0.02859338,0.02002432,0.02145770,0.02956137,0.02295654,0.02352106,0.01808593,0.02994090,0.03618436,0.03552579,0.04125935,0.04147586,0.04469742,0.05578306,0.05001068,0.05433123,0.05967107,0.03762298,0.03712900,0.04989355,0.04560936,0.06894986,0.08747290,0.11744900,0.12803771,0.15758630,0.15737990,0.18860976,0.17194440,0.17707922,0.16024134,0.14420678,0.13224679,0.09719493,0.07667107,0.05171450,0.06013692,0.04007776,0.03285560,0.02451020,0.02561947,0.02540836,0.02850544,0.02169453,0.03061952,0.02983205,0.03347027,0.02782859,0.01748017,0.03149107,0.03583536,0.02449183,0.03118390,0.03064132,0.03639025,0.03074802,0.02906980,0.05324112,0.04980375,0.06602886,0.09692141,0.11162192,0.14809886,0.15467641,0.17769861,0.17203033,0.17361855,0.17493400,0.19219543,0.19131808,0.21693763,0.24661884,0.27427566,0.32638096,0.34838651,0.38042315,0.38194935,0.37734792,0.38504325,0.37496306,0.35497146,0.33004366,0.32248607,0.27610738,0.27216889,0.26771189,0.23258588,0.22442231,0.19938996,0.18576214,0.17241605,0.14086450,0.11200038,0.10323257,0.08836877,0.07723729,0.06949781,0.07017938,0.06160425,0.08108522,0.07722974,0.07120058,0.09018417,0.08037033,0.08667497,0.06231411,0.06513943,0.06718245,0.04779806,0.04277811,0.05563639,0.05126684,0.05453366,0.05308198,0.06140671,0.06944481,0.08589000,0.09755904,0.11085448,0.12689153,0.15156164,0.16991190,0.18406528,0.19039683,0.21227685,0.25240501,0.26355889,0.29619732,0.29493240,0.28232900,0.27624545,0.27982238,0.27458394,0.24943634,0.22417984,0.20671224,0.17126232,0.14787311,0.13700166,0.12151601,0.11992297,0.10992508,0.10454510,0.09814333,0.09127956,0.07148331,0.06395901,0.06298511,0.05735637,0.05096795,0.03967286,0.04102286,0.04218364,0.03914570,0.04999060,0.04724732,0.04484949,0.04385034,0.04214819,0.05671704,0.06539541,0.07593469,0.08345307,0.09486869,0.12695363,0.16289707,0.16517006,0.21032914,0.25341122,0.25915265,0.29850064,0.31385073,0.34503954,0.32775744,0.37252261,0.36446223,0.34525165,0.33122946,0.30741562,0.29221934,0.26019872,0.23099736,0.18741820,0.18152105,0.15626980,0.14055113,0.14825704,0.12599847,0.13522426,0.13250405,0.14032443,0.14198909,0.16037672,0.17168253,0.19583476,0.19814108,0.22325986,0.23075107,0.22716668,0.23527252,0.25738214,0.25982404,0.26172141,0.26206028,0.25362239,0.26422697,0.25124073,0.22850161,0.21727553,0.19819224,0.17551719,0.17427633,0.15926488,0.14234263,0.12750820,0.11253994,0.12070520,0.13351045,0.13585225,0.14094615,0.15413487,0.15048486,0.15123590,0.14329160,0.13021777,0.13471827,0.13758588,0.11616716,0.09473082,0.10759048,0.09141649,0.09062233,0.08783565,0.09581753,0.10057104,0.11858561,0.12272753,0.14037548,0.17144674,0.17369397,0.20146481,0.22639040,0.26324474,0.27273354,0.32127001,0.33746532,0.37842260,0.35827665,0.37222953,0.37098626,0.35574136,0.35253903,0.33312961,0.32468289,0.32702953,0.30776587,0.29799191,0.25759664,0.24372157,0.21231078,0.18225291,0.13984781,0.11660204,0.08831792,0.09462191,0.08404260,0.08264959,0.06943980,0.06989019,0.07758401,0.07625789,0.09404490,0.08635368,0.08967142,0.09234438,0.09874368,0.10580914,0.10628846,0.11305816,0.13346931,0.12143129,0.14433852,0.14032461,0.14712636,0.15007120,0.14345859
-0.01922543,-0.01710697,-0.01894024,-0.02042783,-0.02196509,-0.02708087,-0.01458954,-0.01882786,-0.02055836,-0.01437547,-0.02753565,-0.00791595,-0.01544293,-0.01407328,-0.01722779,-0.02644559,-0.01256080,-0.01560148,-0.01596240,-0.01646251,-0.00634889,-0.01399353,-0.01608340,-0.00807564,-0.00368012,-0.01363668,-0.00941303,0.00090332,-0.00258150,-0.00756162,0.00022056,0.00179313,0.00916959,0.01845034,0.03568660,0.05814054,0.07782375,0.10320620,0.13682163,0.16533345,0.19079547,0.19818107,0.20316129,0.21180579,0.18894806,0.16120130,0.13143810,0.10905048,0.07432690,0.05199192,0.04049662,0.01722006,0.01176319,0.00487528,-0.00310977,0.00205611,0.00203945,0.00127716,0.00117038,0.00588301,-0.00348017,0.00488303,0.00447867,0.00932571,0.00455608,0.00770839,0.00427320,0.00836136,0.01368109,0.00522040,0.02508040,0.03015764,0.03869078,0.06013552,0.08590437,0.13146208,0.15088556,0.17027621,0.18397621,0.17400174,0.16087541,0.14744071,0.12665963,0.11543592,0.13101532,0.13160653,0.14831020,0.17049692,0.20379573,0.22429746,0.25832011,0.28033276,0.31171382,0.31645797,0.34072858,0.37410678,0.36280545,0.36998386,0.36213793,0.32458433,0.29622602,0.26384903,0.23022913,0.17703384,0.14979409,0.11002029,0.10750629,0.08527432,0.06127600,0.06498314,0.05939598,0.07129843,0.07740985,0.08258960,0.09377003,0.11528935,0.11451834,0.10177187,0.10488638,0.09630094,0.07659836,0.05532199,0.05629313,0.05029833,0.04261183,0.04448069,0.04039038,0.03404238,0.03641807,0.04202949,0.05463134,0.05122572,0.06296760,0.07671528,0.10501839,0.13859280,0.15042303,0.18602882,0.23046153,0.26660316,0.30808133,0.33707987,0.35424261,0.35701165,0.36470175,0.38371315,0.36420801,0.33261142,0.29741581,0.26722873,0.25016465,0.24880158,0.23851781,0.24109268,0.24727033,0.23047434,0.23278575,0.21628076,0.18574026,0.16570039,0.12987169,0.10178789,0.08956470,0.06238089,0.06071489,0.05034461,0.04986971,0.03937377,0.04641897,0.04119666,0.06259978,0.04891936,0.04917597,0.05533848,0.05117843,0.04610607,0.05881463,0.05879429,0.07195307,0.05953462,0.07083285,0.08353705,0.08586255,0.10137654,0.10695186,0.11015870,0.10853218,0.11790513,0.10894834,0.11909775,0.11524082,0.11066337,0.10159077,0.10146683,0.08685420,0.09448530,0.07172471,0.08053535,0.08036589,0.08654235,0.07714728,0.07871639,0.08971263,0.07183228,0.11103800,0.12068819,0.13245447,0.15451527,0.17702793,0.22193715,0.25113073,0.30277309,0.32947959,0.37516876,0.42416611,0.46516822,0.47987092,0.50954373,0.53110446,0.53380338,0.51828028,0.48020680,0.45795782,0.41678774,0.37499812,0.31593329,0.26632866,0.24959824,0.19362361,0.18530807,0.15598287,0.13390246,0.13232633,0.11647085,0.11310372,0.11382121,0.09636344,0.10516874,0.09637196,0.08699170,0.08262270,0.09624298,0.10126180,0.09706535,0.12202580,0.12206679,0.14341478,0.16731018,0.20541247,0.23503720,0.27889308,0.30704422,0.36681334,0.43021031,0.46944546,0.51306171,0.54342270,0.56196438,0.58212456,0.59564922,0.60606577,0.59837935,0.59452835,0.61146038,0.59903867,0.61530314,0.59431305,0.58548083,0.57498849,0.56530991,0.51880289,0.47282149,0.39358271,0.34027402,0.28615244,0.24023604,0.18165787,0.13095917,0.11723154,0.10111396,0.10351580,0.09891413,0.09315819,0.09888835,0.09151111,0.08478700,0.08148599,0.09394409,0.08673302,0.09686607,0.09165070,0.09986762,0.09622585,0.10168165,0.10005940,0.10065105,0.10361245,0.10396550,0.10989692,0.11353560,0.11442242
0.01047608,0.00083122,-0.00557426,-0.00615001,0.01102060,0.00352613,0.00601214,-0.00012133,0.00072452,-0.01043376,-0.01169533,-0.01479432,-0.03050353,-0.02393959,-0.02408898,-0.02595461,-0.02667924,-0.02266692,-0.02205316,-0.02388725,-0.02899643,-0.02908488,-0.02759392,-0.01935614,-0.01143432,-0.00083815,0.00231038,-0.00127230,0.01162993,0.02297944,0.00331101,0.00401172,0.01308219,-0.01373675,-0.00800880,0.00743215,0.02275496,0.03482160,0.05617397,0.06901839,0.08217180,0.10216846,0.09459742,0.09917383,0.09377545,0.06811013,0.05147175,0.04447825,0.02526687,0.01215896,0.00842161,-0.01278167,-0.01077637,-0.01952873,-0.01360220,-0.02647264,-0.02637672,-0.02550363,-0.02067478,-0.02080920,-0.01371805,-0.01202055,-0.01926022,-0.02219023,-0.01881829,-0.01983370,-0.01907702,-0.01733014,-0.01939938,-0.02714974,-0.00671502,-0.01167912,0.00768209,0.01489581,0.02802847,0.05023670,0.06254388,0.08098493,0.10084668,0.10512840,0.10669667,0.09985859,0.11005468,0.11707690,0.14666137,0.17190716,0.20497346,0.23936527,0.26442336,0.27913907,0.29663051,0.31420431,0.30395936,0.31993223,0.32198510,0.31862032,0.29257656,0.29158024,0.28481095,0.28871372,0.26315175,0.25851785,0.23590751,0.20840474,0.18230356,0.15428690,0.12199364,0.08220336,0.07239056,0.04607305,0.02929930,0.02332842,0.01774995,0.02707774,0.01640551,0.02709693,0.03761318,0.02626083,0.01376926,0.02180161,0.01898202,0.01459984,0.00687812,0.00364309,0.00972105,0.00966070,0.02185102,0.02828610,0.04153055,0.04667877,0.05966519,0.07413129,0.08947654,0.10888779,0.12671821,0.15257370,0.16650922,0.18721523,0.19877115,0.20414997,0.21239087,0.23362441,0.23606119,0.21988844,0.22787211,0.20502168,0.20223507,0.16981391,0.16812742,0.14410962,0.12645057,0.10893753,0.10505138,0.09728987,0.09084983,0.09607662,0.09118900,0.08449002,0.07250514,0.06416360,0.05425180,0.02719847,0.02514133,0.01488871,0.01686187,0.01188426,0.00107439,0.01226151,0.00830436,-0.00357651,0.01544026,0.01582941,0.00708800,0.02344415,0.03933312,0.05060337,0.05610219,0.07927394,0.09429931,0.11531616,0.12922900,0.16168736,0.19241353,0.22116178,0.24685689,0.28754036,0.28118282,0.29589874,0.31433832,0.30365190,0.29399874,0.28701420,0.26971918,0.23225689,0.20319123,0.19181382,0.16107946,0.14899418,0.13313636,0.12436416,0.10681229,0.11938018,0.11708284,0.13945531,0.15629776,0.16874608,0.17731862,0.21567559,0.21567711,0.24287652,0.25013876,0.26477014,0.28630631,0.28706234,0.28386441,0.29212138,0.28776092,0.27943269,0.27405128,0.25522897,0.24047871,0.22645468,0.19618773,0.19467717,0.16965783,0.14681615,0.12534237,0.12472196,0.12708376,0.12144329,0.11814394,0.12935846,0.14196143,0.14714041,0.15083046,0.16140801,0.16532272,0.16085076,0.15370703,0.14221211,0.12491462,0.10494624,0.09882774,0.07975664,0.07083972,0.07941513,0.05847645,0.05679529,0.07431162,0.08757278,0.10216618,0.13256080,0.14254441,0.19761408,0.20563961,0.24538638,0.26289649,0.29702965,0.32610724,0.33123400,0.34962347,0.36760286,0.36100442,0.35072281,0.33951174,0.31645948,0.31057573,0.29293257,0.29366358,0.27889342,0.24443596,0.23026101,0.19956997,0.15989993,0.13621648,0.10637307,0.08862832,0.06407743,0.04906641,0.03633750,0.03612314,0.04133205,0.03012479,0.04266467,0.04247094,0.04390149,0.05624927,0.05743548,0.05854404,0.07274451,0.07587649,0.07656830,0.07705295,0.08609219,0.08032846,0.08960322,0.11198410,0.10792663,0.10705930,0.11544541,0.10975075
0.06588731,0.06472957,0.06417643,0.06481045,0.06484964,0.07692919,0.07166552,0.07055200,0.06446323,0.06868456,0.05209692,0.06240455,0.05971830,0.04110057,0.04958524,0.04575146,0.04277753,0.03932251,0.04732166,0.04728271,0.04809288,0.05653155,0.05792389,0.06507605,0.06181122,0.06977234,0.07669409,0.08068243,0.09177878,0.09031357,0.08578813,0.06901544,0.07556147,0.06787610,0.07430731,0.06909789,0.09101955,0.10097298,0.12413126,0.13500271,0.16317530,0.16987478,0.17769802,0.16304246,0.17055044,0.15124929,0.12489980,0.10652704,0.08768797,0.08220458,0.07033406,0.07460738,0.05961661,0.05427405,0.04123418,0.05423079,0.05099849,0.05397136,0.05323644,0.05213695,0.05513799,0.05031114,0.04686441,0.06024361,0.06444639,0.06380903,0.06137916,0.06374825,0.05359573,0.05106126,0.05183281,0.06395457,0.07524561,0.08260647,0.09684148,0.11216738,0.14144535,0.14704775,0.15820186,0.16715681,0.15945184,0.14469966,0.14433126,0.13852525,0.14916936,0.15046916,0.16871224,0.17469002,0.18492653,0.20935834,0.23470401,0.24983154,0.27578629,0.28371429,0.30993409,0.33280222,0.34715850,0.35984330,0.38115939,0.38957875,0.37742637,0.37519283,0.33608166,0.30733661,0.29777323,0.24163656,0.20793457,0.17309379,0.13360008,0.11110081,0.08774763,0.08156314,0.08588912,0.07093310,0.07641609,0.06946046,0.07506646,0.06643565,0.07485980,0.06700793,0.07015406,0.06071366,0.07133150,0.07644987,0.07761007,0.07074524,0.08218863,0.09055181,0.09639992,0.10698611,0.12101788,0.13808315,0.15584226,0.17316654,0.19384190,0.21670645,0.23430506,0.23616917,0.27416703,0.26753350,0.27345667,0.29670198,0.29285479,0.29341796,0.29567765,0.27961679,0.26933227,0.26266560,0.23750413,0.21684075,0.21506535,0.21026493,0.20685170,0.20540192,0.20831847,0.21227123,0.23299038,0.19872535,0.20660419,0.17457641,0.17323547,0.14266433,0.11157696,0.10452732,0.09118060,0.08498758,0.07974453,0.07958384,0.07362671,0.07940181,0.08134124,0.09060847,0.07309081,0.07278697,0.06373206,0.08585945,0.09640480,0.10331224,0.11057709,0.12972578,0.13957376,0.14504034,0.15507018,0.18464326,0.19460593,0.20056530,0.20662242,0.22987967,0.23015054,0.23426170,0.21788443,0.20823854,0.19448288,0.18219647,0.18654470,0.19185173,0.16677020,0.15194341,0.15502630,0.15473548,0.15294599,0.15460587,0.16799265,0.18161650,0.19005245,0.21184788,0.23882305,0.27801941,0.28958187,0.30912213,0.32564416,0.35728553,0.37410041,0.38005720,0.39725044,0.40858663,0.41885128,0.40023110,0.40076073,0.38705016,0.36737056,0.35064359,0.32263527,0.29506311,0.27191929,0.23953190,0.20607963,0.19243866,0.19135796,0.18592051,0.18868550,0.19289307,0.20699001,0.20344957,0.20459635,0.21219529,0.22513364,0.23226731,0.21855207,0.18702427,0.19396377,0.17432637,0.16374554,0.14874285,0.13953086,0.13772597,0.14034099,0.13069248,0.13998127,0.16166785,0.17211901,0.19613068,0.21992233,0.27276006,0.32113440,0.34140123,0.38951797,0.40927069,0.45552972,0.43605853,0.45796378,0.47038751,0.46268707,0.46013195,0.45637227,0.45336874,0.43767208,0.45062227,0.42967386,0.42804758,0.40729716,0.36507246,0.31772133,0.27728318,0.23132029,0.19151260,0.15541464,0.13653175,0.12495054,0.11141343,0.11382033,0.09119052,0.11083778,0.09670313,0.10383253,0.11565238,0.11515408,0.11323086,0.09384144,0.11338041,0.11542834,0.11453466,0.12360262,0.12289750,0.11159573,0.12230294,0.13238051,0.12756799,0.13725382,0.13347657,0.12465338
0.01399052,0.02000691,0.02456810,0.01513267,0.01425907,0.02277790,0.02561358,0.02348821,0.01039481,0.01628402,0.01336225,0.01165418,0.00955958,0.01278712,0.00250326,0.01035209,0.00988022,0.01581726,0.01853440,0.01158505,0.01738959,0.01001768,0.01742440,0.01602251,0.02536745,0.02499422,0.02597481,0.03940097,0.02857613,0.02813126,0.03578634,0.04440811,0.03291372,0.03419663,0.05014393,0.05976176,0.08334021,0.09428293,0.12712037,0.14428703,0.16118980,0.18196909,0.17849847,0.18560620,0.17969673,0.14958421,0.13056298,0.11001630,0.08810668,0.07229334,0.06224736,0.05557860,0.05133547,0.04070474,0.03630139,0.02630274,0.02830602,0.02840758,0.03352036,0.03911658,0.03302590,0.04410018,0.03220237,0.03216189,0.04117214,0.03238960,0.04981029,0.04097670,0.04510686,0.04170440,0.03459439,0.05475942,0.05453561,0.08125081,0.08906895,0.12402967,0.15302338,0.16625291,0.17031721,0.18442516,0.17789917,0.16028305,0.17218793,0.14987956,0.17655651,0.19448897,0.21257197,0.24492233,0.28154894,0.30440430,0.34671832,0.37352612,0.39649787,0.40118561,0.42225736,0.42598293,0.42243710,0.42663300,0.41124124,0.37492596,0.34610519,0.34276367,0.28137565,0.23904071,0.19559949,0.16735735,0.16574235,0.13575765,0.12835807,0.12514017,0.11834893,0.13117905,0.13410898,0.14472056,0.16099723,0.16124287,0.16916176,0.17941849,0.16432506,0.15329809,0.14872939,0.12253779,0.12022277,0.10916848,0.08996817,0.08219858,0.07515397,0.08432810,0.09692717,0.08328541,0.09934570,0.10033599,0.11199331,0.13056973,0.14225353,0.16251879,0.18304506,0.20277501,0.21849943,0.25615540,0.27204382,0.28733459,0.32601484,0.33061540,0.34136882,0.33238294,0.30064410,0.30514902,0.29469270,0.25450166,0.26250926,0.23638326,0.23729833,0.23527367,0.23265251,0.25169916,0.22898108,0.21327449,0.19699561,0.20010840,0.16751269,0.16402908,0.13975277,0.11856429,0.11065723,0.10979987,0.09575677,0.09663573,0.09703352,0.08831851,0.09623883,0.09478862,0.09219795,0.10339590,0.09968571,0.09352184,0.11364604,0.11680672,0.12682352,0.12940957,0.13446221,0.14872662,0.15174086,0.17546043,0.17827411,0.19437303,0.19536722,0.20203210,0.20646433,0.20164695,0.19624580,0.19319466,0.18641156,0.17962187,0.18119594,0.17482003,0.16379816,0.15463322,0.14269305,0.14347380,0.14767109,0.14103123,0.16157560,0.16539155,0.16351831,0.18426147,0.19336290,0.23534434,0.23549410,0.26533268,0.31081154,0.33011522,0.39272019,0.42723345,0.46946895,0.49819480,0.51782530,0.55627860,0.59450562,0.57837605,0.56670661,0.58428324,0.54116353,0.52042564,0.45237556,0.42661397,0.38204173,0.34219715,0.30593655,0.28071415,0.24992954,0.21372736,0.21541397,0.21041670,0.20229145,0.18925944,0.17862457,0.18452395,0.18383996,0.17956691,0.16858666,0.16511043,0.15965892,0.16392893,0.16608822,0.18972140,0.19611035,0.21317145,0.24088183,0.28042649,0.30857274,0.35325274,0.38485899,0.44115315,0.48850605,0.50429106,0.54418088,0.55971595,0.58225458,0.57427622,0.59008043,0.57162279,0.54771492,0.54767529,0.54392051,0.54395647,0.53181878,0.51193851,0.53746528,0.49654597,0.47551398,0.47351741,0.41165178,0.36374458,0.31014366,0.27655052,0.22583165,0.21762873,0.18266036,0.18409403,0.15982578,0.16132039,0.16625704,0.15774798,0.15321083,0.14922368,0.17279017,0.15484241,0.16934000,0.15878244,0.17313088,0.16790522,0.17969844,0.16671795,0.18567137,0.19635181,0.17098007,0.16919882,0.19101137,0.18581441,0.17435787
-0.02841615,-0.02813396,-0.02126545,-0.02298156,-0.01473254,-0.00879172,-0.00466620,-0.00710444,-0.00785149,-0.01298716,-0.02180486,-0.02385891,-0.03542766,-0.02834513,-0.02854781,-0.02657689,-0.03201026,-0.03035402,-0.03752389,-0.03495270,-0.03661125,-0.03203992,-0.02399044,-0.01929397,-0.01332385,-0.00558101,-0.00066226,0.01662337,0.01487319,-0.00267261,0.01804855,-0.00268037,0.00398371,0.00018138,0.00481069,0.01615775,0.02172121,0.04834463,0.05815858,0.08088090,0.09764109,0.11352667,0.11545528,0.11349002,0.09685815,0.08697877,0.06126653,0.02792178,0.03112834,0.01229733,0.01027072,-0.00499006,-0.00470706,-0.00991641,-0.01034261,-0.01830831,-0.01000493,-0.02329005,-0.01669422,-0.01807456,-0.01258540,-0.01545026,-0.02039548,-0.01648480,-0.01160816,-0.01200124,-0.00983459,-0.01032343,-0.01395940,-0.00471501,-0.00876740,0.00053773,0.00551395,0.02479954,0.03506511,0.06080380,0.08103547,0.10271114,0.12057553,0.11482238,0.11843313,0.11031165,0.10511177,0.12873875,0.13198671,0.16319322,0.20489337,0.23583925,0.28431732,0.31757634,0.35930355,0.38003896,0.39076737,0.42006117,0.40807606,0.40046497,0.40189828,0.37959496,0.38059564,0.36095520,0.35261140,0.32585885,0.31577877,0.27179587,0.23649246,0.18405251,0.17111789,0.13965061,0.12198729,0.10955559,0.11183849,0.12064874,0.14619821,0.16591872,0.18286428,0.20817517,0.20346219,0.19540535,0.18653027,0.16347022,0.14186155,0.11265826,0.09192676,0.07347120,0.06050549,0.06029331,0.05553126,0.06185541,0.07014251,0.08816578,0.10199230,0.11010538,0.12512325,0.16038772,0.18514760,0.20838407,0.22221084,0.24330109,0.25585883,0.28110347,0.27490292,0.29007909,0.29892201,0.27989195,0.26873068,0.25318022,0.24773459,0.22110480,0.20106541,0.17663924,0.15817644,0.15218025,0.13954020,0.13193011,0.11439751,0.11082588,0.11098533,0.10839047,0.09854245,0.08404354,0.06677142,0.04860204,0.05025488,0.04029927,0.03948884,0.04532622,0.03832464,0.03585107,0.03602015,0.04562345,0.03271830,0.03892443,0.03609138,0.03152867,0.04360799,0.04760082,0.03927118,0.03555675,0.05765936,0.04745596,0.05985425,0.06658204,0.07165816,0.08745167,0.08108506,0.08782133,0.09133477,0.10753113,0.10290893,0.10405036,0.09993157,0.09627175,0.10232805,0.09138981,0.09180603,0.08834671,0.08495957,0.08594508,0.10548286,0.11857112,0.12721442,0.13111299,0.15182926,0.16985747,0.20055565,0.23616885,0.27971836,0.30520340,0.33319657,0.37459582,0.41192630,0.44878326,0.47848742,0.51890228,0.56200936,0.56789751,0.59667381,0.60517645,0.61018260,0.61995867,0.58266174,0.58785678,0.55666040,0.52997114,0.46617818,0.42547069,0.38081799,0.34773336,0.33664188,0.29517667,0.26340643,0.26876265,0.26465943,0.26493573,0.25949964,0.26198686,0.26656400,0.26812127,0.23624733,0.23333568,0.20924128,0.18666668,0.19146477,0.17581336,0.16863104,0.17848867,0.19060149,0.20143130,0.23454981,0.27440494,0.31943050,0.34701442,0.40526801,0.43703653,0.46515698,0.49809828,0.52148161,0.55168493,0.55961483,0.55429810,0.54634768,0.53512465,0.50347822,0.48251687,0.45316441,0.42989176,0.41664567,0.38668035,0.38302154,0.35148730,0.32744210,0.30228855,0.26492916,0.23469727,0.19903312,0.16797215,0.13588428,0.12434713,0.10035725,0.11332391,0.09543715,0.09629612,0.08631805,0.09493673,0.07745350,0.09103414,0.08630982,0.10073767,0.08603442,0.08677932,0.10276382,0.09939876,0.09210402,0.09533632,0.10487009,0.10859713,0.10651637,0.10936102,0.11577313,0.10883842,0.10485351
0.02177817,0.02298308,0.02561199,0.02372166,0.02105267,0.02016522,0.01980805,0.02178143,0.01990999,0.01795366,0.01804440,0.01362801,-0.00074536,0.01403381,0.00377732,-0.00097118,0.00487172,0.00030022,-0.00302189,0.00093140,0.01218021,0.00011601,0.00770150,0.00120018,0.01335777,0.02330620,0.02652425,0.02941453,0.03591462,0.02450068,0.02905121,0.02095069,0.02147207,0.01656412,0.01303712,0.01836635,0.02977728,0.03786726,0.03916347,0.05573954,0.05242351,0.06071094,0.06181605,0.04734562,0.05993969,0.03939154,0.03742790,0.02586422,0.02935479,0.01598488,0.01038719,0.01697543,0.00171712,0.00651088,0.00444865,0.00536635,0.00750386,0.00411381,0.01110807,0.00710632,0.01032053,0.00512216,0.01558338,-0.00202715,0.00838019,0.01302703,0.00989434,0.01244530,0.00729897,0.00834650,0.01388169,0.02773474,0.02453144,0.02884536,0.03719274,0.05417306,0.06201100,0.07557514,0.07502517,0.09808184,0.10022022,0.12871972,0.14610109,0.18182206,0.22047995,0.28178733,0.31981839,0.39452784,0.43677497,0.49935415,0.54590962,0.56353536,0.58529140,0.58805711,0.56657103,0.51870178,0.49400200,0.44961474,0.40882453,0.36678755,0.32157131,0.29978824,0.25859776,0.22653410,0.17872818,0.15576720,0.14023422,0.13063247,0.11913239,0.13306445,0.14464578,0.18297966,0.20453932,0.25457261,0.27585578,0.28283189,0.28942152,0.28670297,0.25450640,0.22208456,0.18963460,0.13714133,0.11236593,0.09025852,0.07250846,0.06999457,0.04482312,0.05699486,0.06061873,0.07101634,0.07312366,0.07710674,0.08680568,0.10824356,0.11203812,0.11952552,0.12050717,0.14368687,0.14666294,0.14677075,0.14948436,0.14842737,0.14345503,0.13990757,0.13891096,0.11448117,0.11970400,0.10507007,0.09030767,0.08607405,0.08133092,0.08230724,0.08233928,0.08505144,0.08168407,0.10569393,0.09299490,0.08554545,0.06720897,0.06519714,0.05909514,0.05246460,0.03325188,0.03706435,0.02678832,0.02443406,0.02167002,0.03139820,0.02876093,0.02936134,0.03615012,0.02956287,0.03234325,0.03855938,0.03901897,0.04012122,0.03658785,0.05112065,0.05907011,0.07103590,0.08053423,0.08178830,0.10246692,0.10964707,0.11322466,0.11243666,0.13441943,0.12884832,0.13336365,0.13381311,0.12652074,0.12891237,0.10311620,0.10824207,0.09876802,0.10108573,0.09954093,0.08377533,0.09595383,0.08785872,0.09240732,0.10781904,0.12381887,0.13153188,0.15704858,0.18481132,0.20907575,0.25770930,0.27898178,0.32483895,0.37851351,0.41196550,0.47479346,0.52705200,0.57421521,0.62742271,0.66225410,0.70333817,0.71802024,0.70678746,0.69799918,0.66355444,0.62720364,0.59638957,0.54378230,0.48537984,0.43167095,0.39873237,0.33142069,0.28841960,0.26023018,0.22112891,0.21856755,0.20378076,0.18532351,0.17542824,0.17745214,0.15525932,0.16655749,0.14591309,0.13463479,0.12572939,0.13479094,0.13193409,0.15461634,0.15119241,0.20277132,0.23417193,0.29774138,0.33109422,0.38149103,0.41658944,0.48432880,0.50447538,0.53088763,0.52156268,0.52326375,0.52912753,0.49154143,0.47049804,0.43126145,0.38000449,0.35383133,0.29054625,0.28668707,0.24588518,0.23683675,0.21937678,0.22388301,0.20890621,0.19291402,0.16781816,0.14362789,0.13306552,0.10913332,0.09771348,0.08615107,0.07853276,0.05755896,0.06071097,0.05767684,0.06168026,0.05634719,0.05821461,0.05594015,0.06027478,0.06336654,0.05810670,0.07108958,0.07944411,0.08036519,0.07107516,0.06173948,0.07816707,0.08700592,0.07964152,0.09051358,0.08811538,0.08364920,0.07730020,0.08576313
0.00124233,-0.00324879,-0.00794279,-0.00192585,-0.00887244,-0.01908529,-0.01107529,-0.01667314,-0.01270926,-0.02404929,-0.01661185,-0.01702917,-0.02307916,-0.02841434,-0.02210350,-0.02607621,-0.01894237,-0.01367646,-0.02147501,-0.01907854,-0.01349324,-0.01256579,-0.01465229,-0.01800536,-0.01372552,-0.01390845,-0.01572823,-0.00357434,-0.00806180,-0.00445362,-0.00005398,-0.00335830,-0.00696968,-0.01060384,0.00330908,0.01056296,0.01982262,0.02592804,0.04021886,0.05415993,0.07076653,0.07145807,0.06860639,0.06998055,0.06331971,0.05711530,0.03451577,0.02753472,0.01216231,0.00288765,-0.00192659,-0.00303057,-0.01011370,-0.00249741,-0.00793613,-0.01386306,-0.00012106,-0.00876632,-0.00820222,-0.00008571,-0.00691723,-0.01293280,-0.00763931,-0.01051753,-0.00943068,-0.00411672,-0.00308084,-0.00598375,-0.00878879,-0.00814768,-0.00707367,0.00051881,0.01286147,0.00762218,0.02333470,0.05221426,0.05832738,0.07312506,0.08176151,0.08295056,0.09910495,0.10506070,0.10806674,0.14203445,0.15496035,0.18399202,0.20920207,0.24610329,0.30421796,0.32761051,0.35680641,0.37533713,0.38884065,0.38409547,0.38384066,0.38977394,0.38489319,0.36901109,0.33705446,0.31314492,0.27267673,0.23162217,0.19369919,0.15246559,0.11460319,0.09044815,0.06084964,0.05612315,0.04534798,0.04065517,0.03480681,0.03972091,0.03637924,0.04421390,0.04539709,0.04611863,0.05990513,0.05143681,0.04683918,0.04622395,0.03593919,0.01363079,0.01460644,0.01949382,0.00710653,0.00508574,0.02051252,0.00876317,0.00977238,0.02003484,0.02120990,0.02168662,0.02775525,0.04391665,0.03946037,0.04299414,0.05925832,0.09382491,0.08846782,0.11124233,0.10549809,0.12886290,0.13822640,0.14444031,0.14869209,0.14064832,0.14024784,0.12638651,0.12475316,0.12651655,0.12842289,0.14337631,0.15275370,0.16302233,0.18752810,0.19197565,0.17641322,0.17355354,0.14888018,0.12131248,0.09971544,0.08713595,0.05736593,0.04036398,0.02674056,0.03133732,0.02841230,0.02174116,0.01946274,0.01552693,0.02269566,0.00965035,0.01935525,0.03346204,0.04847145,0.06148538,0.06812718,0.07850007,0.09091829,0.13150261,0.14154017,0.17092479,0.20469498,0.20892312,0.24977863,0.25419577,0.27001945,0.27506468,0.29252551,0.28248761,0.25954875,0.25613456,0.22497923,0.20625664,0.19339198,0.14521324,0.13417159,0.12727216,0.10123442,0.07990388,0.06651797,0.06340700,0.06208324,0.06214353,0.08068859,0.08255694,0.09535268,0.11365810,0.14289755,0.17336407,0.19925870,0.22899019,0.27940988,0.30874578,0.33890921,0.37905103,0.40891365,0.39954709,0.41278951,0.41535243,0.38073343,0.36672653,0.33429654,0.30963178,0.26405616,0.23389923,0.19563562,0.15787016,0.13486111,0.11899563,0.08409226,0.08369921,0.07441260,0.06458079,0.05300081,0.04722829,0.05989348,0.06078910,0.05442559,0.04953376,0.04873327,0.04183407,0.05072857,0.05436291,0.06067472,0.07910358,0.09451705,0.11635043,0.13137641,0.17011213,0.20748311,0.24209487,0.27306530,0.31771885,0.34999684,0.35793076,0.38092469,0.38327012,0.37256894,0.38826265,0.37120268,0.36559206,0.34183690,0.34897480,0.35907827,0.37001706,0.37080681,0.34636814,0.36451301,0.34488910,0.30317131,0.26602630,0.22762264,0.17909990,0.15128407,0.12141778,0.09329643,0.08287708,0.06935709,0.06325426,0.05366232,0.05885325,0.06262389,0.07265659,0.07448580,0.06165358,0.06892026,0.08263002,0.08673643,0.09741213,0.10239112,0.09907160,0.10550840,0.10787812,0.11133586,0.12023068,0.13168062,0.11823005,0.12610019,0.11599824,0.11989275
