1000,1005,1010,1015,1020,1025,1030,1035,1040,1045,1050,1055,1060,1065,1070,1075,1080,1085,1090,1095,1100,1105,1110,1115,1120,1125,1130,1135,1140,1145,1150,1155,1160,1165,1170,1175,1180,1185,1190,1195,1200,1205,1210,1215,1220,1225,1230,1235,1240,1245,1250,1255,1260,1265,1270,1275,1280,1285,1290,1295,1300,1305,1310,1315,1320,1325,1330,1335,1340,1345,1350,1355,1360,1365,1370,1375,1380,1385,1390,1395,1400,1405,1410,1415,1420,1425,1430,1435,1440,1445,1450,1455,1460,1465,1470,1475,1480,1485,1490,1495,1500,1505,1510,1515,1520,1525,1530,1535,1540,1545,1550,1555,1560,1565,1570,1575,1580,1585,1590,1595,1600,1605,1610,1615,1620,1625,1630,1635,1640,1645,1650,1655,1660,1665,1670,1675,1680,1685,1690,1695,1700,1705,1710,1715,1720,1725,1730,1735,1740,1745,1750,1755,1760,1765,1770,1775,1780,1785,1790,1795,1800,1805,1810,1815,1820,1825,1830,1835,1840,1845,1850,1855,1860,1865,1870,1875,1880,1885,1890,1895,1900,1905,1910,1915,1920,1925,1930,1935,1940,1945,1950,1955,1960,1965,1970,1975,1980,1985,1990,1995,2000,2005,2010,2015,2020,2025,2030,2035,2040,2045,2050,2055,2060,2065,2070,2075,2080,2085,2090,2095,2100,2105,2110,2115,2120,2125,2130,2135,2140,2145,2150,2155,2160,2165,2170,2175,2180,2185,2190,2195,2200,2205,2210,2215,2220,2225,2230,2235,2240,2245,2250,2255,2260,2265,2270,2275,2280,2285,2290,2295,2300,2305,2310,2315,2320,2325,2330,2335,2340,2345,2350,2355,2360,2365,2370,2375,2380,2385,2390,2395,2400,2405,2410,2415,2420,2425,2430,2435,2440,2445,2450,2455,2460,2465,2470,2475,2480,2485,2490,2495,2500
0.06160178,0.06596832,0.06658332,0.05634609,0.06982018,0.06547575,0.07222070,0.06930696,0.06214292,0.05090497,0.06122995,0.04865704,0.04585503,0.04404359,0.04421407,0.04872277,0.02909097,0.04135054,0.03736969,0.04527847,0.04675191,0.04698334,0.05678964,0.05131500,0.06053560,0.06618180,0.07431216,0.08575735,0.08669794,0.07954807,0.07349991,0.07526088,0.07132206,0.07345069,0.08159676,0.08562145,0.11181468,0.13880462,0.16167616,0.19511476,0.20884152,0.21513114,0.21883833,0.21786604,0.18091035,0.17561507,0.15801694,0.12472768,0.11240174,0.09323868,0.07188672,0.06748039,0.06437746,0.05880947,0.05574640,0.05316208,0.04521029,0.05129185,0.05241367,0.04958606,0.05231304,0.04657745,0.05061198,0.04843029,0.05354764,0.05157075,0.06370632,0.06088576,0.05069381,0.06196789,0.06860149,0.07013385,0.08099267,0.10845421,0.12369530,0.15414213,0.17821059,0.18924937,0.21943467,0.21875596,0.21070864,0.20842539,0.20156224,0.21600984,0.22685718,0.23580990,0.27863350,0.30913358,0.33436148,0.37080066,0.38819236,0.38500426,0.40083992,0.39952205,0.39848540,0.38710042,0.38275887,0.36819057,0.36706142,0.36267437,0.36695003,0.32305609,0.33040538,0.29773530,0.26892408,0.22399908,0.19754412,0.17073928,0.15049236,0.12572860,0.12312260,0.12450134,0.12700243,0.13355405,0.13675511,0.13809756,0.13464927,0.13822452,0.13213664,0.10961771,0.11340698,0.10330843,0.10062013,0.08828511,0.10439156,0.10470644,0.10219450,0.10517829,0.12947249,0.13758693,0.15725038,0.17364556,0.20000284,0.22582622,0.23903861,0.26602264,0.30717168,0.30600335,0.34358046,0.36338039,0.38031352,0.39410826,0.40295829,0.40897796,0.38409375,0.37777935,0.34670786,0.32603925,0.29693245,0.26042190,0.23539782,0.20465746,0.19744423,0.18718118,0.17921304,0.17739019,0.16494102,0.15453076,0.13602806,0.13751948,0.12776588,0.10234014,0.10289450,0.09807201,0.09293293,0.09293129,0.10554552,0.08014644,0.08152312,0.08810154,0.09208154,0.09608291,0.10115022,0.10264748,0.11246217,0.12424904,0.13548359,0.14905108,0.14958391,0.17420393,0.20792236,0.22442946,0.24043936,0.26734756,0.28391861,0.30366208,0.32909323,0.31367348,0.33022269,0.33192030,0.31229345,0.29525749,0.28512401,0.26574919,0.24344841,0.23421996,0.19784881,0.19669761,0.18542613,0.21157871,0.20195559,0.22020083,0.22086518,0.23326754,0.26785706,0.28866525,0.30341849,0.32737860,0.34725309,0.39024151,0.40813670,0.41289336,0.43036285,0.42794787,0.44362747,0.43868154,0.43395893,0.43772519,0.43939503,0.41713599,0.38837071,0.37803272,0.34071208,0.32424819,0.30761052,0.27974561,0.28456383,0.24989594,0.25285709,0.26156127,0.24954544,0.25731913,0.25703350,0.27968471,0.28957583,0.26664181,0.28198461,0.28914333,0.27964406,0.25857249,0.22554004,0.21173148,0.20085662,0.19013517,0.18999204,0.17086948,0.18698320,0.19476490,0.20601877,0.23085396,0.23572724,0.27101461,0.30933055,0.34416434,0.36929762,0.40938185,0.44543578,0.47341130,0.52111238,0.53875669,0.54411562,0.54216582,0.52852629,0.51395196,0.49914103,0.48527674,0.48385981,0.44906674,0.44746588,0.42512160,0.40220056,0.38010002,0.31889307,0.27900912,0.24360534,0.22187272,0.19250890,0.16695936,0.15201119,0.13709133,0.14645855,0.13994154,0.14174069,0.14104829,0.14552610,0.14804747,0.15639827,0.17212326,0.15679673,0.16673152,0.15940951,0.18128062,0.17130969,0.18591156,0.17832906,0.17969562,0.18308612,0.20042686,0.20112265,0.22122897,0.19186568
-0.04929875,-0.05450572,-0.06059132,-0.05465155,-0.05111453,-0.04486623,-0.04557131,-0.05679186,-0.05944406,-0.05656872,-0.05647817,-0.05118059,-0.06449125,-0.04596266,-0.06356063,-0.05976037,-0.06332311,-0.05929381,-0.06564016,-0.05938824,-0.05957296,-0.05276652,-0.06035275,-0.05888426,-0.04954534,-0.04834910,-0.03871042,-0.04585896,-0.03964154,-0.03551498,-0.04088952,-0.03712496,-0.03809488,-0.04523803,-0.03390471,-0.01313485,0.00710304,0.01401423,0.04636738,0.06768074,0.09291194,0.10526733,0.11764649,0.12049232,0.09545899,0.07464081,0.05682516,0.02662249,0.00777954,-0.01008149,-0.02854714,-0.04015351,-0.04204951,-0.05294610,-0.05300427,-0.06094450,-0.04941681,-0.05902229,-0.05745350,-0.06296263,-0.06281322,-0.05802354,-0.06049517,-0.05480532,-0.04987670,-0.05394245,-0.05829737,-0.07120559,-0.05646919,-0.05659523,-0.05068194,-0.04315615,-0.04285016,-0.02154696,0.00554821,0.02827500,0.05567993,0.07751047,0.09321325,0.10370538,0.10136589,0.09083322,0.09155147,0.08684472,0.11018185,0.12987487,0.16285170,0.22128511,0.27117034,0.30599208,0.32400444,0.35880302,0.37889435,0.36806131,0.34330032,0.36909027,0.32698185,0.31069972,0.27271275,0.23428512,0.21010647,0.18082576,0.15355565,0.12681090,0.09192965,0.08566810,0.05280045,0.04182508,0.02498165,0.02817632,0.03697947,0.05663411,0.07249083,0.09697990,0.12591599,0.14949589,0.13419062,0.12639587,0.12325585,0.10933977,0.06384391,0.05081328,0.03345420,0.01394099,-0.00732193,-0.01709216,-0.02678227,-0.01776643,-0.01996905,-0.01962935,-0.00476052,0.01472678,0.03057778,0.04172495,0.05355263,0.08799986,0.11405578,0.12961537,0.15689652,0.17155269,0.21310965,0.21790151,0.24318812,0.24868454,0.24098793,0.22977531,0.21274038,0.18992004,0.15763671,0.13325204,0.10827627,0.08534768,0.06461085,0.05152955,0.04927776,0.04360273,0.02599222,0.01985522,0.01206055,0.00017228,-0.01538824,-0.01489678,-0.01958853,-0.03870965,-0.03714274,-0.03674373,-0.04675015,-0.04791832,-0.03221839,-0.04659953,-0.04141571,-0.04489656,-0.04820024,-0.04497276,-0.03015958,-0.02696491,-0.03001996,-0.02099356,-0.00992834,-0.01181338,-0.00318652,0.01783381,0.02249627,0.02449031,0.03783083,0.04369238,0.05107833,0.05904854,0.05646762,0.05452811,0.04356420,0.04136169,0.04338432,0.03139315,0.02653287,0.03024219,0.01015026,0.00689131,0.01901403,0.00517965,0.01046012,0.01085162,0.03418898,0.03788056,0.06320530,0.06936825,0.08473764,0.12538435,0.13833612,0.18289165,0.21687509,0.25072182,0.28416535,0.34109447,0.39038797,0.42011881,0.42752010,0.45877701,0.45655598,0.46380592,0.47950251,0.46536443,0.41954271,0.38769970,0.35633804,0.32719807,0.26969054,0.23899844,0.20281433,0.15877241,0.13971713,0.12349953,0.10427937,0.08913524,0.08189228,0.08704721,0.07317035,0.07099704,0.05335211,0.05884227,0.04297539,0.04155182,0.03950342,0.04378902,0.04771810,0.05562787,0.07045079,0.09021150,0.12452211,0.16508554,0.20381809,0.25001530,0.28402421,0.32659917,0.36064990,0.38899144,0.39458993,0.40786192,0.41322957,0.44487273,0.41641191,0.41556175,0.40963304,0.36654855,0.34836165,0.33870793,0.32480474,0.29646359,0.28257940,0.27487657,0.25273416,0.22745516,0.18081782,0.13119740,0.10741517,0.05886421,0.04083567,0.01003389,0.00470396,-0.01319464,-0.01111381,-0.01583733,-0.01577929,-0.02394424,-0.02573211,-0.03073165,-0.02155156,-0.02968619,-0.01791366,-0.00752038,-0.00820703,-0.01506406,-0.00469784,-0.00652558,-0.00576714,0.00309329,-0.00661135,-0.00608947,-0.00202274,-0.00470082,-0.00204735
-0.02428704,-0.02446298,-0.02864700,-0.02009006,-0.03906205,-0.03160512,-0.02829022,-0.01626334,-0.01680111,-0.02703548,-0.03846413,-0.03719664,-0.03603783,-0.04933403,-0.03381705,-0.04181030,-0.04598123,-0.03128035,-0.04273232,-0.03294300,-0.03817500,-0.04034015,-0.02975305,-0.02024878,-0.03039271,-0.02622619,-0.02412570,-0.02232686,-0.01532614,-0.02335429,-0.02350741,-0.02762049,-0.02185805,-0.01222225,-0.00933704,0.00122989,0.01952348,0.02515727,0.04787478,0.07238486,0.07459556,0.09899836,0.09445489,0.09535609,0.07529257,0.06217784,0.05019502,0.02901503,0.01485455,-0.00101186,-0.01531566,-0.02402988,-0.02950195,-0.03303119,-0.04001634,-0.02278324,-0.03965656,-0.04383888,-0.04627888,-0.03147716,-0.03744809,-0.04229108,-0.03413176,-0.04276071,-0.03427914,-0.03013936,-0.03553000,-0.04618127,-0.03575748,-0.03398235,-0.04183622,-0.02829156,-0.02093670,-0.00088694,0.01605933,0.03208396,0.04474378,0.08033417,0.07271782,0.08258921,0.08466586,0.07223677,0.06767796,0.07036915,0.07787742,0.11764951,0.14537975,0.17792476,0.21025869,0.24821891,0.29463498,0.32966162,0.37186510,0.39713885,0.44248295,0.46041816,0.45523555,0.46273308,0.43386473,0.41029784,0.37404110,0.32968074,0.28575268,0.22726909,0.16951324,0.13245145,0.10552343,0.06440069,0.05475575,0.03359974,0.03943970,0.05089525,0.06773609,0.06648797,0.10047002,0.11550008,0.09414858,0.09756087,0.10013305,0.08145693,0.06027740,0.03689141,0.02330388,0.00820721,-0.00957499,-0.00618736,-0.01567361,-0.01148623,-0.01422830,-0.01250523,-0.01187634,0.00007694,0.00321862,0.02889707,0.04126051,0.06017929,0.07346110,0.08872185,0.12042891,0.13610872,0.14926590,0.16952136,0.17422855,0.17960608,0.17414344,0.17163525,0.16856914,0.15402910,0.14245023,0.12788164,0.13307549,0.12250721,0.15359021,0.15519413,0.18219066,0.17901151,0.19702819,0.17954685,0.15309114,0.11798151,0.08443540,0.05391123,0.01768382,-0.00059498,-0.02287614,-0.02357609,-0.03254811,-0.03758697,-0.04157637,-0.04701679,-0.03965523,-0.03463718,-0.03505663,-0.04412288,-0.03150254,-0.03424749,-0.03361645,-0.03018654,-0.03235442,-0.02301215,-0.01861159,-0.01793517,-0.00438549,-0.00923697,-0.01102789,-0.00517817,-0.00553585,-0.00434251,-0.00140156,0.00271081,0.00333697,0.00666287,-0.00490864,-0.00613699,-0.01770048,-0.01888600,-0.00823024,-0.00908111,-0.01376667,-0.00504738,-0.00131008,0.00440374,0.01070843,0.02779652,0.04672028,0.06572119,0.09372379,0.12327701,0.16314321,0.20557054,0.24957203,0.30243105,0.36822166,0.45250568,0.49954137,0.54044992,0.59273903,0.63134327,0.64586358,0.65912011,0.61193682,0.58857315,0.55250881,0.48940833,0.43803714,0.38738688,0.30424844,0.25577494,0.19548103,0.16580101,0.12761287,0.09488069,0.07339382,0.06559742,0.05824694,0.05783932,0.03968260,0.04402607,0.03253727,0.03111096,0.01255141,0.00844068,0.01218021,0.01687598,0.02035904,0.04236447,0.06019542,0.08608098,0.14073647,0.18133720,0.24645552,0.30492192,0.35385828,0.41593617,0.47951220,0.50828667,0.53087453,0.52206626,0.54254864,0.52956703,0.48698896,0.48268180,0.45956309,0.43769977,0.41492566,0.42498750,0.42424639,0.42720476,0.39942526,0.38631743,0.36865578,0.31472360,0.25217210,0.18351415,0.13492045,0.07122886,0.04408305,0.01007320,-0.00828627,-0.03425018,-0.03860791,-0.04173512,-0.04779786,-0.03920396,-0.04497143,-0.04829923,-0.03993254,-0.05091255,-0.04637861,-0.04227450,-0.03590537,-0.05049034,-0.04590169,-0.04264802,-0.03832002,-0.03370465,-0.03562230,-0.05002783,-0.04229791,-0.04093233,-0.02776073
0.02410466,0.02487766,0.03629233,0.03673043,0.03919965,0.04587201,0.04207697,0.03951359,0.02227033,0.01648884,0.02434185,0.01530865,0.00602436,0.01875233,0.01544752,0.01361664,0.01327818,0.01470398,0.00791392,0.01681429,0.01144933,0.01227002,0.01516349,0.01001478,0.02961509,0.03220184,0.03475590,0.04718195,0.04256018,0.04100428,0.04440494,0.02869128,0.04612375,0.04258009,0.03768670,0.05804311,0.06926301,0.08909883,0.11789729,0.15121039,0.17129009,0.19123582,0.19263543,0.19746206,0.18519497,0.15575199,0.14267171,0.12040938,0.10033767,0.07252784,0.06273106,0.04961759,0.02788488,0.02658223,0.02067447,0.02696584,0.02592410,0.02138121,0.02394608,0.02697223,0.02544688,0.02693855,0.02866729,0.02410661,0.03532859,0.02226728,0.01843973,0.02937946,0.02995825,0.02663358,0.03647803,0.03588670,0.05346842,0.06167843,0.09715176,0.11311762,0.14813640,0.16605279,0.17979685,0.19181904,0.18769354,0.17776373,0.16131599,0.16433462,0.18416437,0.20141755,0.21862139,0.27070491,0.28433978,0.31618360,0.35504022,0.35515784,0.35992845,0.38107416,0.35842824,0.34505221,0.33705041,0.32114533,0.31358764,0.29395371,0.27836309,0.26500269,0.24354704,0.21622723,0.19464254,0.17833055,0.15038982,0.13171890,0.11102882,0.10551835,0.11602388,0.11916735,0.11486625,0.13571934,0.13227176,0.14696803,0.15626458,0.15278659,0.14770209,0.12356111,0.11776637,0.10246693,0.08903059,0.07109466,0.06535787,0.07480743,0.06906588,0.07499412,0.08714670,0.09428991,0.10122996,0.12023723,0.12869418,0.16020849,0.17558223,0.20740786,0.22881341,0.23907071,0.27083859,0.30263780,0.31327804,0.34321931,0.33501293,0.36089432,0.34356174,0.33343134,0.34306713,0.32681634,0.28941764,0.25457433,0.21372813,0.18142190,0.15906610,0.14191527,0.13575218,0.11288443,0.11933341,0.10199331,0.10442529,0.08759619,0.08736053,0.08220988,0.07863748,0.07392388,0.05505570,0.05787659,0.05602368,0.05659841,0.05938454,0.05661091,0.06288851,0.06285750,0.05818371,0.06696544,0.07704474,0.07536986,0.08140374,0.09744702,0.11061165,0.12283680,0.14264412,0.15324770,0.16138332,0.17039621,0.19013285,0.19979865,0.22021716,0.23708407,0.23456572,0.23380949,0.23160682,0.21486850,0.19931921,0.20392715,0.18998140,0.17296516,0.16585565,0.15683275,0.15151396,0.14265624,0.14437530,0.14473841,0.15858513,0.17024760,0.18332014,0.20005660,0.20616899,0.24340343,0.25803049,0.26342568,0.30449390,0.30076016,0.33091597,0.35527074,0.35657846,0.37874546,0.40512486,0.40490558,0.38872040,0.40413287,0.38176378,0.38467798,0.35045817,0.34955570,0.31550571,0.29211712,0.25951420,0.24990223,0.22296646,0.21866690,0.21962756,0.21094619,0.21813720,0.20808624,0.21504638,0.20326899,0.20919547,0.21492900,0.20243952,0.19005805,0.18957545,0.18485323,0.15846878,0.16635876,0.14540820,0.14842943,0.14445293,0.16010446,0.15826727,0.19199435,0.21594604,0.24581892,0.25590718,0.29436849,0.33258883,0.35400172,0.37544921,0.42221461,0.43305587,0.47581084,0.47056780,0.47535629,0.45620182,0.47956515,0.46272627,0.43432096,0.42635514,0.40716546,0.38579954,0.37644091,0.35402746,0.31092530,0.29944863,0.26748667,0.22060642,0.18033354,0.16216480,0.14105850,0.12607748,0.12409219,0.10920968,0.10555321,0.10055463,0.11136506,0.09663464,0.10547044,0.10710978,0.11270540,0.11586398,0.11091390,0.12037448,0.11104357,0.11190360,0.13508092,0.12204242,0.12753380,0.13183666,0.14533883,0.13596856,0.14413332,0.13540026
0.03994407,0.04001885,0.03932923,0.04221168,0.05339017,0.04828790,0.05162514,0.04826308,0.04486146,0.05022244,0.04123010,0.03976318,0.03419887,0.02510003,0.02386574,0.03018444,0.03042158,0.01877197,0.01887616,0.02607423,0.02527858,0.03439043,0.02095113,0.04130200,0.03745181,0.04900759,0.06324967,0.06399450,0.06152863,0.05450068,0.07009074,0.05144350,0.05193916,0.06977240,0.07782915,0.08993730,0.11322621,0.12535147,0.18527464,0.20758444,0.21868252,0.25453505,0.25584783,0.24058685,0.22394557,0.21347275,0.16768111,0.14384056,0.11753731,0.08480211,0.07807779,0.06005260,0.04457619,0.03716726,0.04014248,0.04331626,0.03072910,0.01767572,0.03533678,0.03554194,0.02568596,0.03309492,0.03374932,0.03316331,0.03854911,0.03169797,0.03232109,0.03799807,0.02469748,0.03495092,0.03784587,0.04295856,0.07275623,0.08974800,0.11710257,0.15471399,0.16913917,0.20444131,0.22134790,0.23642373,0.20888870,0.18185076,0.17410762,0.15356311,0.15061829,0.16140717,0.18971935,0.20739101,0.24653705,0.25198392,0.27255614,0.28550303,0.31111370,0.32749216,0.30929901,0.32102279,0.30967324,0.29994434,0.31044128,0.29475349,0.28956385,0.27763621,0.27355724,0.25154564,0.22761989,0.19376743,0.16953153,0.14164590,0.12934930,0.11339945,0.10520634,0.10563964,0.10506144,0.13650826,0.13193793,0.13823851,0.15354582,0.14260181,0.14680675,0.12540683,0.12239147,0.09843590,0.09347981,0.08958806,0.08366089,0.06330562,0.07346524,0.07980731,0.09274572,0.10617056,0.11373835,0.11867547,0.14570003,0.18036450,0.21806103,0.22851545,0.26471175,0.30271827,0.33113085,0.35363759,0.38638962,0.41551399,0.43509241,0.43757338,0.44193220,0.43048356,0.39863262,0.37163365,0.33803757,0.30535955,0.26394589,0.21997287,0.19867257,0.17558160,0.15651709,0.14612873,0.12280895,0.11676742,0.10584271,0.09484316,0.08458095,0.07255395,0.06620516,0.06760561,0.05868120,0.06195144,0.05376152,0.05611958,0.06241681,0.06482189,0.05984410,0.06250756,0.05972636,0.06109396,0.05857910,0.06563643,0.07522373,0.07963913,0.09400377,0.08940857,0.10284351,0.10866927,0.11037583,0.12298230,0.13025057,0.14588434,0.14117388,0.14551851,0.15477466,0.13914936,0.14515108,0.15672456,0.13686202,0.12796415,0.12509559,0.11915002,0.12336255,0.11804456,0.12247418,0.13104631,0.13578405,0.13556627,0.13815027,0.17144586,0.18055147,0.20259575,0.22425430,0.25162370,0.26553707,0.28572795,0.31223458,0.35043780,0.33909755,0.38139854,0.37405368,0.40939364,0.40685161,0.41607963,0.41322816,0.40909828,0.39587853,0.37298861,0.37178979,0.34732274,0.29775855,0.29342073,0.26726956,0.24626138,0.23287685,0.23066636,0.20189856,0.21286570,0.21593936,0.23064596,0.22127352,0.23152110,0.22901983,0.21722853,0.21091512,0.20479194,0.18915808,0.19376015,0.16315535,0.15737766,0.15281108,0.15918295,0.15018239,0.17418056,0.17829796,0.19782714,0.21374084,0.25040972,0.27742173,0.30051439,0.35308411,0.37629345,0.42408537,0.44919182,0.50205210,0.54640230,0.52153893,0.57294068,0.58482207,0.54290747,0.53388683,0.50834516,0.50251303,0.48881441,0.46095161,0.45896871,0.43328563,0.39275993,0.36574245,0.30877980,0.26639459,0.21259014,0.18554965,0.16536660,0.12135896,0.12468449,0.09676669,0.10146870,0.10369712,0.09246987,0.08797412,0.10662522,0.09898606,0.10542158,0.10381487,0.11249400,0.10301713,0.10507041,0.09917480,0.11029839,0.09901431,0.11789920,0.11000832,0.11160601,0.11354196,0.11520957,0.11503120
0.00813699,0.01862499,0.02768984,0.03542236,0.03968571,0.04184692,0.04231994,0.05044498,0.04194244,0.03729195,0.02394819,0.02323152,0.02182758,0.01616480,0.01266818,0.01139119,0.00575267,-0.00134446,-0.00125455,0.00766625,0.01680924,0.00996504,0.00951618,0.01701376,0.02477942,0.03919241,0.04313627,0.04739505,0.06185482,0.05124551,0.05463502,0.05004346,0.03791076,0.05583742,0.06636400,0.08696733,0.11909882,0.14132344,0.18911927,0.23635267,0.25635440,0.28156888,0.28812385,0.29228030,0.24832159,0.22801571,0.18893943,0.13955345,0.11497256,0.08237405,0.06719271,0.05165029,0.02883595,0.01811315,0.00876492,0.01022668,0.01758529,0.00604956,0.01579898,0.01133070,0.01654857,0.01763655,0.01075231,0.00653111,0.01330861,0.02328889,0.02030192,0.00580512,0.01684064,0.01895340,0.02681284,0.02568584,0.04582346,0.07935721,0.09967977,0.15620799,0.18506447,0.23032458,0.22743104,0.24826202,0.21363719,0.17685429,0.15459067,0.12597443,0.12083456,0.10811715,0.12798283,0.14757037,0.17254401,0.19489445,0.20890272,0.22001079,0.24346672,0.25798518,0.26294520,0.26199085,0.29340841,0.30475970,0.31000952,0.31306587,0.28442514,0.28788288,0.28162435,0.25177350,0.23115360,0.20295603,0.15647402,0.13410690,0.10654091,0.07898012,0.08531548,0.08745841,0.08037396,0.09386163,0.10100614,0.09336117,0.09494896,0.10895026,0.09230484,0.08694871,0.07746622,0.06871562,0.05536319,0.04685137,0.04610477,0.04814422,0.04760029,0.05134758,0.07121352,0.08914228,0.10727908,0.13351089,0.16557273,0.18713835,0.21554644,0.25906888,0.29112883,0.34021364,0.35969011,0.40327048,0.43939192,0.47981036,0.48559396,0.51005820,0.49034107,0.47467534,0.43142921,0.41311293,0.36797141,0.32855890,0.28636671,0.23857767,0.20277705,0.18033277,0.15783022,0.15812746,0.14116887,0.11883492,0.10872995,0.08904509,0.07396378,0.06553649,0.05911708,0.03923591,0.04158648,0.04473626,0.02174228,0.03635363,0.01994370,0.04176802,0.03067838,0.03312965,0.03069321,0.03217096,0.03195074,0.04378413,0.03682105,0.04725832,0.04219725,0.04499964,0.05674620,0.06749922,0.06521930,0.07826162,0.08296541,0.08532786,0.09023448,0.09384048,0.07507831,0.08302590,0.08565754,0.08374980,0.07977287,0.07038003,0.07934123,0.08914165,0.08081381,0.08108640,0.08872536,0.10120761,0.09990700,0.11732428,0.13480514,0.15441112,0.18427700,0.19636173,0.22357578,0.26540017,0.28125499,0.31043108,0.33051650,0.34408098,0.37195750,0.37550370,0.39637948,0.40377622,0.40676413,0.41380440,0.42232072,0.38375488,0.37823226,0.35263610,0.31673593,0.29471989,0.27490711,0.24786435,0.22425682,0.20887898,0.20504412,0.18376183,0.18916140,0.19289706,0.20733814,0.21232808,0.20589135,0.22455562,0.23284371,0.21480363,0.20383567,0.18009077,0.17513364,0.16093453,0.16128309,0.12096336,0.12129533,0.12096775,0.11720352,0.12385337,0.14773578,0.17208208,0.18973393,0.21030795,0.25898280,0.30646401,0.34818594,0.39663443,0.44687936,0.48283918,0.52878677,0.57659424,0.60672034,0.64114383,0.64810972,0.63576394,0.61953072,0.57431182,0.57761040,0.55842321,0.53601316,0.51212734,0.49789141,0.43327112,0.37274402,0.33614377,0.26204489,0.19780006,0.15819520,0.12413872,0.09617993,0.09129562,0.08093036,0.06693565,0.06674427,0.06830140,0.05791624,0.06504622,0.05916038,0.05928369,0.07204997,0.05940014,0.06561154,0.07107753,0.06645800,0.07295683,0.07731144,0.07542159,0.07646401,0.07749168,0.06886618,0.06849538,0.08136881
0.07935152,0.06773827,0.07318817,0.06779419,0.07509824,0.06871481,0.07044276,0.08250670,0.07727005,0.06631990,0.06331622,0.04923658,0.05360162,0.04514508,0.05210011,0.05846733,0.05543084,0.05718118,0.05215064,0.05736111,0.05689846,0.05238852,0.04629846,0.06241227,0.05602059,0.06747548,0.06809534,0.07445152,0.07307977,0.07633179,0.07346967,0.07124328,0.06746742,0.06319270,0.06447337,0.06333547,0.07029538,0.08333445,0.09330214,0.11037376,0.12594952,0.11808161,0.11834230,0.11956645,0.12374264,0.11899505,0.09317260,0.08769695,0.09467172,0.07564476,0.05877898,0.05096697,0.06579750,0.06655143,0.05282338,0.05272719,0.04298511,0.05243823,0.04874095,0.05050505,0.05898382,0.06518027,0.04809838,0.04640983,0.05569667,0.04462043,0.04177771,0.04885631,0.03669816,0.05261939,0.05499338,0.05897011,0.06038553,0.07179144,0.08302502,0.09630179,0.10998976,0.13762571,0.12330864,0.14446976,0.14378311,0.15630602,0.16196137,0.18811549,0.20607204,0.23423316,0.25523734,0.29607544,0.32344121,0.32999031,0.37912054,0.37479421,0.38476757,0.39393037,0.41143365,0.39699658,0.37634295,0.36541764,0.38628627,0.34876103,0.32738092,0.30964750,0.27534388,0.25430889,0.24476641,0.19679431,0.17145436,0.13108150,0.12435906,0.11133357,0.10563137,0.10651136,0.10010010,0.10619803,0.11791338,0.12907568,0.12893209,0.12928413,0.10982010,0.10111226,0.10822429,0.09533171,0.07216473,0.08395978,0.07862429,0.07789402,0.07705013,0.08096937,0.08791409,0.09194137,0.09960170,0.12107639,0.13004232,0.14901310,0.15274423,0.17696447,0.17621115,0.18928195,0.20392933,0.20361974,0.21881260,0.20443397,0.21311065,0.20990891,0.19951693,0.20181743,0.18598708,0.17917739,0.16686661,0.16154513,0.14852907,0.15477600,0.15957006,0.14824576,0.15259876,0.15912588,0.16021247,0.15758521,0.13952234,0.11607072,0.10139336,0.10836976,0.09059443,0.06690285,0.07752684,0.06308676,0.06802526,0.06716551,0.07689633,0.05926006,0.07053698,0.06310037,0.06808313,0.07399300,0.06970023,0.08954816,0.10558309,0.10074010,0.12749947,0.14350973,0.16807316,0.17309656,0.18918851,0.22620404,0.24077979,0.26315253,0.27370867,0.29173109,0.28771763,0.30205373,0.28568937,0.27621981,0.24873606,0.23263594,0.20812036,0.20147020,0.18261382,0.15719891,0.15857592,0.14848851,0.14236668,0.13998174,0.14370875,0.15429946,0.16935166,0.19189400,0.19272105,0.23292330,0.24578920,0.26280681,0.29276659,0.32593139,0.34724056,0.36097341,0.36531912,0.37476946,0.39842880,0.40566825,0.40174490,0.39661349,0.38181089,0.35217789,0.32509616,0.30248530,0.28949872,0.25101968,0.23389488,0.20439960,0.20174942,0.18782724,0.17928548,0.18979189,0.18053230,0.17625936,0.18475118,0.18761355,0.17554281,0.18030158,0.16166021,0.16429546,0.15789095,0.14030145,0.11928512,0.12008160,0.11743179,0.11125742,0.12076946,0.12921015,0.14956959,0.16651602,0.19736545,0.22885476,0.25456652,0.28633680,0.32117092,0.32961759,0.36608030,0.36395898,0.36647606,0.37097476,0.36284469,0.36161344,0.34673252,0.33434738,0.32981204,0.31037547,0.31911815,0.29645935,0.30911033,0.27853959,0.26754501,0.24208334,0.21277580,0.17633258,0.16770209,0.12030831,0.10818281,0.10352346,0.07559266,0.08850553,0.07515165,0.07225188,0.08335642,0.08465800,0.08857353,0.09308269,0.07976758,0.08403628,0.10903893,0.09974500,0.10296408,0.11589765,0.11418996,0.10746147,0.11635161,0.13104747,0.14015481,0.13959863,0.12432607,0.13475427,0.13214714
0.03129648,0.01551295,0.02976402,0.02622446,0.04112457,0.03081235,0.03423495,0.02858891,0.02971690,0.02412750,0.01943155,0.01108347,0.02030294,0.00824215,0.00835412,0.00576491,0.01124505,0.01219038,0.01162453,-0.00008117,0.00875000,0.01474455,0.00696635,0.01341718,0.01899446,0.03405085,0.02391537,0.04982120,0.04008986,0.03438094,0.03436431,0.02595292,0.02554815,0.03458407,0.03111187,0.05160625,0.06079765,0.08814655,0.09010638,0.11225045,0.14155692,0.14489282,0.15668929,0.14030684,0.13072729,0.11470829,0.09366959,0.08122041,0.05509841,0.03766469,0.02923945,0.02346967,0.02536933,0.01372321,0.00793207,0.02246835,0.01445558,0.01434821,0.00394239,0.00955039,0.00831913,0.02212276,0.00178572,0.01373027,0.01160771,0.01614693,0.02141610,0.01492636,0.01369197,0.01956844,0.01318994,0.02812039,0.03687027,0.04869758,0.07635244,0.09169724,0.10415709,0.13291313,0.14799968,0.15862354,0.15987658,0.16598352,0.16197397,0.18915061,0.21968345,0.23843426,0.27462553,0.32250464,0.37515426,0.42014292,0.44208571,0.45520334,0.44451128,0.45381139,0.43394630,0.42466819,0.40474634,0.36499045,0.37584131,0.34066771,0.31922812,0.28981595,0.26202377,0.22830233,0.20942277,0.17440767,0.14629058,0.13254211,0.09150968,0.10004268,0.09395845,0.09087999,0.11435912,0.13542551,0.14698854,0.14218931,0.15382918,0.14110542,0.14415062,0.10117587,0.09573513,0.08691830,0.06274639,0.06718604,0.05269042,0.04559341,0.04942433,0.06473183,0.07387880,0.07029229,0.06715885,0.09834513,0.10986313,0.13192505,0.15805237,0.16161065,0.20186697,0.21478885,0.23470980,0.25091793,0.25972154,0.26160296,0.27076700,0.28014774,0.28293741,0.26201269,0.25770604,0.21522164,0.20940508,0.18051838,0.14722353,0.14473065,0.11723938,0.12884136,0.11204734,0.10978512,0.11105448,0.10649303,0.09604889,0.08651035,0.06464042,0.05804369,0.04230769,0.04374887,0.03227625,0.03105419,0.02815597,0.02424830,0.02384756,0.04271414,0.03327708,0.02811520,0.03844822,0.04564977,0.05859254,0.06024279,0.08087783,0.08608087,0.10400036,0.12477332,0.14465800,0.16618299,0.19543250,0.21079340,0.23304656,0.26079897,0.27838277,0.27709775,0.28750134,0.27851165,0.26944235,0.26463844,0.24486292,0.21549026,0.19218026,0.17514133,0.14893019,0.13856183,0.13531355,0.13438603,0.12674449,0.12291919,0.12837702,0.15150717,0.15945285,0.18757320,0.20569722,0.23059007,0.25344415,0.28706576,0.30743401,0.33453069,0.36493663,0.39937796,0.40117235,0.44231921,0.44018108,0.44157897,0.45848192,0.44908551,0.44242659,0.40957825,0.40630344,0.36756522,0.34017631,0.29348371,0.27138172,0.23230582,0.20059936,0.20523050,0.18938244,0.19097681,0.19048933,0.19427288,0.19946156,0.19109199,0.18562929,0.17976993,0.17215501,0.15642646,0.15719819,0.13057942,0.12820655,0.11336348,0.11108932,0.11461337,0.12108092,0.13624125,0.18435762,0.18351215,0.21471006,0.26498686,0.30783745,0.33989380,0.35290276,0.37905905,0.41435773,0.44294091,0.43799261,0.44701916,0.44284005,0.44536782,0.44218001,0.40964676,0.39070112,0.36311185,0.36382381,0.34611004,0.33817885,0.32412843,0.29537305,0.26365719,0.22215231,0.20832128,0.16422405,0.13850894,0.10844144,0.08679696,0.08406858,0.06717599,0.07453319,0.06393344,0.06144488,0.06861887,0.07792395,0.07809234,0.06964420,0.07891591,0.08585855,0.09163787,0.10093049,0.10621602,0.11032360,0.10918148,0.11424498,0.10701759,0.12516693,0.12317598,0.12967780,0.12409817,0.12671223
0.02008676,0.01658660,0.02535483,0.02195858,0.02938388,0.04210241,0.03065296,0.02824486,0.03010667,0.02658577,0.02782562,0.01417687,0.00369533,0.00177712,0.00276146,0.00224787,0.00278954,0.00557055,0.00389032,-0.00662817,-0.00273241,0.00428581,0.00815061,0.01460460,0.02204562,0.03073911,0.04568735,0.05321449,0.04996047,0.05045128,0.05017450,0.04045820,0.03836987,0.02512320,0.03424773,0.04949491,0.05384826,0.07027806,0.08091896,0.10208556,0.11769125,0.12751337,0.11779699,0.12411108,0.11482459,0.10038534,0.08146308,0.07069131,0.06097134,0.04911250,0.03559138,0.02409047,0.02277652,0.01732235,0.01705820,0.01740298,0.01878427,0.01909904,0.02701182,0.02986321,0.01964790,0.02379428,0.02370208,0.02573162,0.02110879,0.02581943,0.02467228,0.03382753,0.02365844,0.03090108,0.04104820,0.03724977,0.04824869,0.06077019,0.07321779,0.09864102,0.11683192,0.13420621,0.14660050,0.14350823,0.15681445,0.15499750,0.16928321,0.17881908,0.20390209,0.23408350,0.27336722,0.30519461,0.31684639,0.32611402,0.37401537,0.39871987,0.41879015,0.40396395,0.40238011,0.40144899,0.41073338,0.43338422,0.40950894,0.41008594,0.40475875,0.38093575,0.35444441,0.33670981,0.29085715,0.25516869,0.20668192,0.17400369,0.13939764,0.12837750,0.10902599,0.10766884,0.10558930,0.10356521,0.11422232,0.11475839,0.12359269,0.11451813,0.10789867,0.10101599,0.09161579,0.07818593,0.09320044,0.07816973,0.08593326,0.08885306,0.08603728,0.10210376,0.09616065,0.12532695,0.14498971,0.16272184,0.19073083,0.23252707,0.24010672,0.24338210,0.27743383,0.27952253,0.29956225,0.30934591,0.30642171,0.31411290,0.32881841,0.30134759,0.29896926,0.29383866,0.25762925,0.24114786,0.22624041,0.20104098,0.20475688,0.18034581,0.18629601,0.18012312,0.17269644,0.18162341,0.17596387,0.16606821,0.14510919,0.14107475,0.13099686,0.11187276,0.09697057,0.10182900,0.09177225,0.07751564,0.08994319,0.08211027,0.07988702,0.08065129,0.08125906,0.08767350,0.09650716,0.11233485,0.10834195,0.11962268,0.12662228,0.14417016,0.17042109,0.17820291,0.19871401,0.21934815,0.24724221,0.28450668,0.29895426,0.32060731,0.33586332,0.33576257,0.35810484,0.35665604,0.34468351,0.32740216,0.31255657,0.28971931,0.26017091,0.24048918,0.23461553,0.20930904,0.20237094,0.20308963,0.20992788,0.20621315,0.23106774,0.26576956,0.29233828,0.30610624,0.32679536,0.35315589,0.39175648,0.41423340,0.43986641,0.44116217,0.46585787,0.46540804,0.49358139,0.49269966,0.48576364,0.47919163,0.47291471,0.46181360,0.43845851,0.40255729,0.37165831,0.36710368,0.32247111,0.30406841,0.30181030,0.27501218,0.27085265,0.27036218,0.26714779,0.27743543,0.28639528,0.29865679,0.31329356,0.30962639,0.31964895,0.32157329,0.29626739,0.28349582,0.25368907,0.25102490,0.20118026,0.20275756,0.19450204,0.18839634,0.17925461,0.18713926,0.21039990,0.23075233,0.25204802,0.27979564,0.31502958,0.35172363,0.40392496,0.40985412,0.45302375,0.46224161,0.49219501,0.50211470,0.50361953,0.49522544,0.52189685,0.47691543,0.44319237,0.44809286,0.42961465,0.42385672,0.40732983,0.38352342,0.39804940,0.33765824,0.30859816,0.26683816,0.24782792,0.20833312,0.18428713,0.17962395,0.15417022,0.15043960,0.14467053,0.14140178,0.14044736,0.14864094,0.15886369,0.14905123,0.16302422,0.16636947,0.16561193,0.16937959,0.17325301,0.18675411,0.16998719,0.19692345,0.18883427,0.19860244,0.20449663,0.21488828,0.21514771,0.20471727,0.20513131
0.09041568,0.08895820,0.10024818,0.10606411,0.10450847,0.09686884,0.11170664,0.10356418,0.09684261,0.10204193,0.08943941,0.08463626,0.06504489,0.06602315,0.07247075,0.06787914,0.06787161,0.06307031,0.06520471,0.06630139,0.05137749,0.07158561,0.06543467,0.07084394,0.08331135,0.10075913,0.10476660,0.12887698,0.12508633,0.12064995,0.12002771,0.09689963,0.09253136,0.08464157,0.08878517,0.08826592,0.09815569,0.10859404,0.12064969,0.11108355,0.11886186,0.13798840,0.12580946,0.13420650,0.13551000,0.13001000,0.10319032,0.09524007,0.08697464,0.09144560,0.07695191,0.07170669,0.07369521,0.06862387,0.07551367,0.08015347,0.06241658,0.07402413,0.06656131,0.07382285,0.07173627,0.06025024,0.07012412,0.06151759,0.06701836,0.07223104,0.06969326,0.07240227,0.06417038,0.07894981,0.07427114,0.07085281,0.08586776,0.09571633,0.11187278,0.11996037,0.13330129,0.13368264,0.14083459,0.14864420,0.16126394,0.17880823,0.18920091,0.20168982,0.21818915,0.25111651,0.31096520,0.32595722,0.35038984,0.40134562,0.42641136,0.43597177,0.44517139,0.44603816,0.43121255,0.43726270,0.43993697,0.43792890,0.42677141,0.43631915,0.42589575,0.42667801,0.38567734,0.35413120,0.33514900,0.27815072,0.24681245,0.20254058,0.19547346,0.16941610,0.16636926,0.16253479,0.17195386,0.16940023,0.17598117,0.18061325,0.18009466,0.17969293,0.17336648,0.15733150,0.14337384,0.13105378,0.11454524,0.11507799,0.11862979,0.11520504,0.13462924,0.13439346,0.15081508,0.17092157,0.18472478,0.19714915,0.22947043,0.25739906,0.29895976,0.28474476,0.30085321,0.30973459,0.30258531,0.30527602,0.29934366,0.27907560,0.27354675,0.25878954,0.25200575,0.22454830,0.22255357,0.19626738,0.17614266,0.17435576,0.15381551,0.16168718,0.15247144,0.14857938,0.13029674,0.15210170,0.15389881,0.14560945,0.13847680,0.12636765,0.11615681,0.10141574,0.10834510,0.09946804,0.10142737,0.09634977,0.09476153,0.08825341,0.09039093,0.09838265,0.09868503,0.08800826,0.10822168,0.10546505,0.11242020,0.12697371,0.13075421,0.13657642,0.16622210,0.16903372,0.19011640,0.21381695,0.23138673,0.25462057,0.26501218,0.27522011,0.28141167,0.29043048,0.29407006,0.30494431,0.29034874,0.27118564,0.25469184,0.24422231,0.23642123,0.23339404,0.19845276,0.21470634,0.21037045,0.21991205,0.21301606,0.23256650,0.27646209,0.28591172,0.30826900,0.33570736,0.36888878,0.40062050,0.42614045,0.46914328,0.48064143,0.50488205,0.50151502,0.53090759,0.54064128,0.55125377,0.51842166,0.51830651,0.50927284,0.46350381,0.46382840,0.44228225,0.42041192,0.38736800,0.35720668,0.33476193,0.32522824,0.29214157,0.30002278,0.29531184,0.30899415,0.31793464,0.31491774,0.35186720,0.32869322,0.35066673,0.35232155,0.34586073,0.32635345,0.28819970,0.28289861,0.25027621,0.23180854,0.21500947,0.19322728,0.20995153,0.21112620,0.21357789,0.22247067,0.25131947,0.26782853,0.31399445,0.34145493,0.35984017,0.38175838,0.42427921,0.44485499,0.45525189,0.45260496,0.47275944,0.45417438,0.42528531,0.40307660,0.39981896,0.35110606,0.32437618,0.32165636,0.29891031,0.27895912,0.26729240,0.24948039,0.23570484,0.20838092,0.18406235,0.16654015,0.16240668,0.14473705,0.13837313,0.13484002,0.12156560,0.12771222,0.13556448,0.14689218,0.13124809,0.12740590,0.12952161,0.13846099,0.14789801,0.15970908,0.14318280,0.14693120,0.16207387,0.15601753,0.16517746,0.16399173,0.18010029,0.17858678,0.18034014,0.18154877,0.17729024,0.18206268
0.02820312,0.02961323,0.03754114,0.03633227,0.04756661,0.04173637,0.04669899,0.05248444,0.05007671,0.03215624,0.03834822,0.03800106,0.01624475,0.02206217,0.01730919,0.00177421,0.01187564,0.01790898,0.00881191,0.01202532,0.02017187,0.01706651,0.01781198,0.02256365,0.03626699,0.05402575,0.05320932,0.06779476,0.07063444,0.06573081,0.06697376,0.05072631,0.05013019,0.04008081,0.05315833,0.06976784,0.09680150,0.10574571,0.15134469,0.18402475,0.19772662,0.21190332,0.22400498,0.20714318,0.21404495,0.18039189,0.14326358,0.12534482,0.08918953,0.07655814,0.05258299,0.02836509,0.04600525,0.01889040,0.02146925,0.01780908,0.01105107,0.02419857,0.01838855,0.01723180,0.02168767,0.02885901,0.02248589,0.02590558,0.02157022,0.02324705,0.01538479,0.01756164,0.02854127,0.02135132,0.03352798,0.03881234,0.05701755,0.06944331,0.08987391,0.13512820,0.15839173,0.18064025,0.20239334,0.18906979,0.17428573,0.15436083,0.13218160,0.11185330,0.10754655,0.10393556,0.11351351,0.13046351,0.14411197,0.16305642,0.18162395,0.22096773,0.23438357,0.27298164,0.28854809,0.31347674,0.34279026,0.37810175,0.40458369,0.43336717,0.44571672,0.44006754,0.39671795,0.36199860,0.33365624,0.28371503,0.22540321,0.17403796,0.15146657,0.12226199,0.09505465,0.08752916,0.07774296,0.07995311,0.08574988,0.06707093,0.08351001,0.07767995,0.07432513,0.08095877,0.06177918,0.05746785,0.06237030,0.07025865,0.06211062,0.05720407,0.06536865,0.08884576,0.11410118,0.12759160,0.14112409,0.16439745,0.19628971,0.22103223,0.24278070,0.28949692,0.30444011,0.35431918,0.38353174,0.39516016,0.42010832,0.43655980,0.44575061,0.46024873,0.40947109,0.40549403,0.37683475,0.33594596,0.32357209,0.28880808,0.27246498,0.24478814,0.21612788,0.22922104,0.20911654,0.22117521,0.21084555,0.20405644,0.18565743,0.16958981,0.14273285,0.11079010,0.10187705,0.09615558,0.08452608,0.06630162,0.05438968,0.05336518,0.06055167,0.04671582,0.05300677,0.05926190,0.05110310,0.06353357,0.06142067,0.06308820,0.06679773,0.06830150,0.06974969,0.08628446,0.08563883,0.08856645,0.10083435,0.10240659,0.11511486,0.12554086,0.11990307,0.12700482,0.12829514,0.13465616,0.13117905,0.13513767,0.11806975,0.11121532,0.11640969,0.11804069,0.12858983,0.12433675,0.13344944,0.13963513,0.15097556,0.18172609,0.19753302,0.21866029,0.25518270,0.27529081,0.32012893,0.35050169,0.40538626,0.42430663,0.45205248,0.48302509,0.49592105,0.51769157,0.53210811,0.52174546,0.50219313,0.50212234,0.50607032,0.48272619,0.45758110,0.41164442,0.37923757,0.34588472,0.31072528,0.27850096,0.25065997,0.24164623,0.23848744,0.22689311,0.25135456,0.26317162,0.25946192,0.28034926,0.30181936,0.30677970,0.30325715,0.30274328,0.28810683,0.26164392,0.24345092,0.23048379,0.18670422,0.18326174,0.16213267,0.16684173,0.15695001,0.15968779,0.17210015,0.19816163,0.22362485,0.25277398,0.30225541,0.36057788,0.39914236,0.46140776,0.50599900,0.53936922,0.58538537,0.63051779,0.65001344,0.65140291,0.67672808,0.65048399,0.63533295,0.61223141,0.58733520,0.58438284,0.57183514,0.51342755,0.50140681,0.45340165,0.39829669,0.33478836,0.27130350,0.22376755,0.17704730,0.14990220,0.12498912,0.11218993,0.10991894,0.10315370,0.09483801,0.09229283,0.09762917,0.10768281,0.10387129,0.09785997,0.11211449,0.10231897,0.09927118,0.11049432,0.09257083,0.10438475,0.10146015,0.10983924,0.10953546,0.11210108,0.11272240,0.11623833,0.11800958
0.01527401,0.01878701,0.02359642,0.03144015,0.03109170,0.03050372,0.03275114,0.02671349,0.02736205,0.03742117,0.03343667,0.02865913,0.02870572,0.02726495,0.02073312,0.02963472,0.02792536,0.02558122,0.03291867,0.02717247,0.03634329,0.03126371,0.03701178,0.03224887,0.02511617,0.04169007,0.03526042,0.04437887,0.04559440,0.04213835,0.04876595,0.05616312,0.06218547,0.08002182,0.10593673,0.12595655,0.16204395,0.22669220,0.26714500,0.33670067,0.35979402,0.39098169,0.40308927,0.37988572,0.35428306,0.30604575,0.26391604,0.20390349,0.16093477,0.11659489,0.08858362,0.07515184,0.06607383,0.04645151,0.05368624,0.05017426,0.04823155,0.04225191,0.05788969,0.04126344,0.04786538,0.05635337,0.05371114,0.03709544,0.04264879,0.04917135,0.04001504,0.04926245,0.04931725,0.05476485,0.06465517,0.07800826,0.10556120,0.14024156,0.18645171,0.25365183,0.28472014,0.31444367,0.32456666,0.32061252,0.29698247,0.24469033,0.20479362,0.18503320,0.16231810,0.17653615,0.17265027,0.19284282,0.22116031,0.22610484,0.24158431,0.27453519,0.28168362,0.26642722,0.25295205,0.25499872,0.25224632,0.21775773,0.20720814,0.19911501,0.18428845,0.17205035,0.15444788,0.14225033,0.12045485,0.10779877,0.11459136,0.09922109,0.09816903,0.10379447,0.11134861,0.13658943,0.13798158,0.14931275,0.15611288,0.17121284,0.16817520,0.16873473,0.16190745,0.15189783,0.13825027,0.12265695,0.09861055,0.08390759,0.09364347,0.08178673,0.08108145,0.08771054,0.09007399,0.11354014,0.09628759,0.12920012,0.14674979,0.17207944,0.21125849,0.25374719,0.28069838,0.32777801,0.40419908,0.47108142,0.52056591,0.56714329,0.60483260,0.64593800,0.64697882,0.61301145,0.58321856,0.53846104,0.49125289,0.41633878,0.35958868,0.30493947,0.24622831,0.22677378,0.17776211,0.14518659,0.13338649,0.11246524,0.10802072,0.10406673,0.10564461,0.08953702,0.08583569,0.08333551,0.08607327,0.06554767,0.07544790,0.08274542,0.08310361,0.08031083,0.08858040,0.08380046,0.07800718,0.09144587,0.08785503,0.08318690,0.08864459,0.08341808,0.07835974,0.08212557,0.10013866,0.10303024,0.10316410,0.10372564,0.09796571,0.09777333,0.11264249,0.11166855,0.10600497,0.12278736,0.11172951,0.11607474,0.10063111,0.11100418,0.10375554,0.10848526,0.11363682,0.10383233,0.10948347,0.11019105,0.10144805,0.11450233,0.12632328,0.13670297,0.13176933,0.15469637,0.15425084,0.16695583,0.18552794,0.21555449,0.22223589,0.24221068,0.25940996,0.28686501,0.31297643,0.31354360,0.33879176,0.36289333,0.36756476,0.38765483,0.35558725,0.34696422,0.34721401,0.32205489,0.29769718,0.27813023,0.24581195,0.24445628,0.21758963,0.20249164,0.19580667,0.17043411,0.17160306,0.16673598,0.15796601,0.15898072,0.16058602,0.16034669,0.13730451,0.13677689,0.14590033,0.14329897,0.13403986,0.12599428,0.14984587,0.16086176,0.16392762,0.18223634,0.21028552,0.23441982,0.25625504,0.27725119,0.30869440,0.33897541,0.38004535,0.41859080,0.46804529,0.51174627,0.57703603,0.62832659,0.67150628,0.69215164,0.69973888,0.70191276,0.68145487,0.66628500,0.66051819,0.63465421,0.61872069,0.57803020,0.55456493,0.52164247,0.46713678,0.39057325,0.31168065,0.26964056,0.21595611,0.17352288,0.14604516,0.14008128,0.12842949,0.11994561,0.12144377,0.13249194,0.12898906,0.11345925,0.11748510,0.11791691,0.11287967,0.12736561,0.12631986,0.11345609,0.12481549,0.12529455,0.12591823,0.12000800,0.11792865,0.12042520,0.12145975,0.11914706,0.12872644
0.01747299,0.01657978,0.01574268,0.03067329,0.03158648,0.03493616,0.03864248,0.04856246,0.03255890,0.03280770,0.00860492,0.02649260,0.01152042,0.00436162,-0.00144619,-0.00818050,0.00035580,0.00995723,0.00781863,-0.00721077,0.00218773,-0.00157233,0.01155600,0.01724794,0.00720489,0.02730892,0.04467174,0.05580800,0.06740921,0.06314329,0.05831795,0.03226071,0.03616425,0.02844020,0.01441830,0.01417557,0.02410053,0.02683218,0.03005944,0.03862649,0.05251820,0.05462379,0.06539222,0.05583428,0.04588476,0.05133244,0.04047588,0.03105520,0.01430743,0.02750184,0.02390863,0.01945464,0.01489359,0.00767158,0.01919900,0.00984257,0.01453173,0.00951930,0.00928777,0.02039787,0.01140805,0.01286666,0.01561924,0.01454008,0.00877318,0.00873236,0.00820013,0.01367383,0.02045388,0.02040441,0.02458971,0.02124559,0.02448994,0.03184886,0.03835918,0.04417917,0.05451541,0.06742509,0.06321494,0.07464174,0.07923387,0.07730154,0.08723146,0.09347172,0.11929038,0.12608606,0.16737217,0.19108817,0.20978834,0.24206516,0.25733696,0.29121546,0.31551422,0.33186811,0.35287628,0.36832950,0.40452976,0.43660655,0.44021705,0.43725505,0.43782407,0.41603335,0.40788267,0.36299355,0.31329164,0.27387594,0.23765064,0.18198434,0.14742191,0.12937146,0.10236258,0.10037143,0.08635790,0.10433856,0.10078720,0.10562385,0.11702296,0.10651905,0.11354091,0.08890373,0.07349847,0.07766539,0.07015322,0.05610816,0.06368272,0.05951469,0.07362986,0.07835274,0.10042662,0.11760753,0.12796172,0.15113570,0.17045974,0.19707531,0.20674131,0.23493755,0.23694042,0.25836712,0.24224982,0.24091507,0.22954345,0.22706985,0.22364818,0.19848390,0.19268768,0.17257028,0.15890982,0.14372815,0.13405324,0.13476388,0.13255829,0.14662007,0.13972093,0.15814139,0.17846469,0.18192131,0.19045662,0.19049700,0.17269968,0.14962123,0.14182483,0.10984948,0.08527543,0.06539596,0.06888571,0.06293844,0.06643468,0.05850493,0.05874371,0.06439264,0.06137342,0.05994420,0.05859191,0.06078715,0.06252301,0.07120727,0.07872677,0.08977700,0.09287661,0.09786136,0.10058300,0.12198276,0.13981991,0.15442111,0.15109929,0.16241651,0.17194114,0.16845765,0.17684039,0.18464026,0.18045637,0.17212285,0.15470959,0.15974105,0.15234336,0.15874093,0.15496365,0.14825027,0.14845700,0.15261470,0.16517245,0.18833358,0.21328497,0.24228947,0.25472498,0.29614283,0.33880462,0.36967311,0.39798569,0.44872884,0.46877545,0.49559260,0.51549814,0.52651255,0.56813551,0.56419306,0.57043708,0.56034379,0.55660952,0.54587187,0.51860919,0.48991447,0.44179615,0.40980460,0.37271225,0.32597722,0.30288815,0.28382758,0.27232442,0.26020643,0.27065139,0.28037510,0.30497819,0.28698588,0.31035142,0.32286985,0.32443965,0.32505740,0.30659724,0.29242312,0.27199077,0.21212554,0.22757291,0.20011636,0.17760638,0.17726222,0.18208011,0.18499174,0.19867665,0.24128379,0.26929085,0.29205969,0.32648973,0.37665994,0.41860100,0.45201431,0.46867698,0.49976569,0.49951117,0.49921546,0.50152371,0.47059478,0.43999452,0.43486985,0.42069293,0.40621595,0.37636021,0.37253532,0.37632035,0.34033680,0.31738006,0.28984030,0.26012770,0.23550822,0.19686942,0.17556450,0.15629983,0.13562697,0.11958039,0.12654434,0.11703850,0.12080775,0.11831481,0.11133191,0.12462436,0.12197468,0.12301665,0.12457320,0.12777599,0.13156311,0.13173733,0.13632198,0.13725099,0.12916780,0.14399245,0.14926792,0.14600358,0.14469775,0.14952388,0.14551298,0.14545907
-0.00192563,0.00788423,0.00561069,0.01905019,0.02529277,0.02865824,0.02920269,0.02826253,0.03143807,0.01740937,0.00432200,-0.00619350,-0.00677547,-0.00846534,-0.01871178,-0.03026652,-0.02642684,-0.02558324,-0.03241582,-0.01837303,-0.01537178,-0.02042869,-0.01716529,-0.00534601,0.00026800,0.02064097,0.04064073,0.04250559,0.04586672,0.04880994,0.03174993,0.01432821,0.01080761,0.00383997,-0.01697646,-0.01209980,-0.01251641,-0.00011905,-0.00130986,0.00621594,0.00943649,0.01863934,0.02006034,0.01687390,0.01994571,0.00919009,-0.00201997,-0.00866753,-0.01138287,-0.01763374,-0.02419366,-0.03010143,-0.03500778,-0.02478540,-0.02313112,-0.03077711,-0.02253094,-0.01903636,-0.01946492,-0.02681858,-0.02324134,-0.01497837,-0.02566944,-0.02629115,-0.02275544,-0.02744819,-0.02188611,-0.02030743,-0.02464946,-0.02665759,-0.01998916,-0.01715375,-0.02146565,-0.00791367,-0.01019951,0.00061804,0.01566477,0.02092263,0.01723316,0.03616406,0.02683511,0.03247940,0.04171842,0.05508384,0.06609195,0.09105024,0.11473145,0.15818190,0.18766356,0.20844759,0.22970997,0.24765085,0.25760901,0.27824796,0.28568628,0.29182865,0.29978380,0.29741838,0.33060401,0.33751362,0.35426634,0.34457727,0.31207932,0.29794143,0.27611843,0.22657447,0.17152112,0.13942051,0.09991801,0.07405617,0.05212378,0.05814385,0.06357199,0.06426954,0.07281004,0.08259223,0.08058030,0.08628160,0.08425000,0.06162049,0.03987100,0.03040070,0.02219761,0.01850228,0.02050840,0.01552532,0.01653298,0.03130151,0.04656407,0.06960982,0.09817782,0.12066717,0.15083876,0.17521769,0.19004679,0.20649232,0.21888279,0.21656116,0.21329288,0.20480061,0.17623519,0.17500414,0.15710184,0.13178272,0.11925449,0.09806942,0.07794776,0.06016257,0.05330199,0.04018484,0.03124785,0.02676152,0.03364380,0.03261106,0.01813159,0.02942960,0.02756476,0.03177634,0.02468824,0.01320311,0.00305446,-0.00734891,-0.01008570,-0.01408304,-0.01778231,-0.02853213,-0.02465806,-0.01479650,-0.02272834,-0.02187699,-0.01759738,-0.01859838,-0.02571295,-0.02552491,-0.01639569,-0.01187369,-0.00927778,-0.00856404,0.01156886,0.02387878,0.02926848,0.02790042,0.02814801,0.05565587,0.06106914,0.06816835,0.07226649,0.08025245,0.06750641,0.07856176,0.05593259,0.06651381,0.06332464,0.06493383,0.05159870,0.05293920,0.05697877,0.06001921,0.07126410,0.07178182,0.10006996,0.11269409,0.14053986,0.17030894,0.20716994,0.23890622,0.27925172,0.31082393,0.34268667,0.35611739,0.38544254,0.40740260,0.42422305,0.43635508,0.43140132,0.42518274,0.41128521,0.41925672,0.39472618,0.37676636,0.34836770,0.32125947,0.28199110,0.27422336,0.23303763,0.20662835,0.19213500,0.17973479,0.17481085,0.17461589,0.19260962,0.20435252,0.21914036,0.25334996,0.26020788,0.26124717,0.25573744,0.26106682,0.25122320,0.21653716,0.17890703,0.16526107,0.12995362,0.10045447,0.08806936,0.07900123,0.07817180,0.06964762,0.09460665,0.10055928,0.12263175,0.15696867,0.18498820,0.21549596,0.24580185,0.26662945,0.29899685,0.29691469,0.31710808,0.32240754,0.31505855,0.29604012,0.26759618,0.22935720,0.22287163,0.18569349,0.15851051,0.14046015,0.11174808,0.09898205,0.08050578,0.05771963,0.05427670,0.03895621,0.01367683,0.00647909,-0.00517004,-0.02212479,-0.01725739,-0.01474291,-0.01148119,-0.01722327,-0.01955871,-0.02517927,-0.02284272,-0.02751316,-0.01591945,-0.01357604,-0.01037815,-0.00798542,-0.01791173,-0.01164763,-0.00520443,-0.00289210,-0.00120448,0.00134163,-0.00569135,-0.00921868,0.00021573,0.00106389,-0.00186964
0.02117566,0.03004424,0.02618917,0.01773710,0.02527230,0.03005316,0.02878947,0.03159448,0.02747722,0.01255302,0.01625389,0.00553982,0.01577177,0.00819616,0.00447842,0.00821157,0.00606464,0.00987991,0.00762866,0.00777178,0.00248479,0.00938590,0.01236460,0.01181175,0.02558267,0.02983016,0.03754807,0.03455613,0.04047078,0.04168325,0.02803942,0.03416255,0.02777064,0.02188183,0.01137314,0.01774763,0.01917837,0.02222141,0.03169166,0.03655536,0.03721224,0.03668576,0.03614299,0.03509736,0.02776827,0.02355727,0.01935817,0.02291137,0.01828194,0.01695885,0.01486684,0.00498985,0.02512585,0.01369318,0.01167121,0.01659964,0.01319708,0.01850870,0.01469530,0.01020641,0.01498750,0.02572729,0.00829310,0.00577038,0.01566981,0.00573305,0.01748063,0.02083941,0.01721165,0.02473528,0.02042858,0.02070221,0.01973322,0.03131165,0.03716172,0.04094448,0.05690879,0.06734756,0.08254391,0.07669550,0.10092327,0.12212159,0.15929152,0.18203121,0.24134238,0.26995743,0.32694758,0.38504128,0.43343874,0.46476721,0.49164675,0.49139124,0.52766995,0.51250454,0.50375745,0.48379106,0.46436346,0.43683893,0.42767926,0.39273291,0.35460553,0.34062909,0.28679195,0.25873535,0.22693828,0.18278696,0.15681075,0.13476735,0.12096783,0.11841309,0.13562371,0.13950147,0.15947130,0.18446685,0.17811757,0.18982220,0.20389857,0.19242346,0.18057795,0.13636403,0.13019759,0.11406479,0.08169542,0.07690505,0.08103258,0.05821705,0.06919554,0.06785477,0.07001888,0.08594015,0.10088196,0.12092271,0.12698513,0.12133429,0.14806491,0.15556183,0.16048057,0.15112210,0.15470999,0.16517340,0.15171655,0.13965204,0.12630466,0.12096101,0.11463823,0.10115938,0.10423139,0.09552587,0.09222886,0.09330784,0.09338261,0.10038791,0.11045656,0.12559728,0.13023069,0.13584103,0.13865366,0.11837197,0.11509057,0.08459257,0.07934128,0.07348560,0.05786464,0.06024555,0.04558776,0.05554653,0.04610799,0.05009956,0.05249767,0.06501603,0.04645830,0.06789911,0.06111753,0.05856507,0.07743802,0.08371997,0.08783025,0.09998450,0.12385774,0.13959444,0.14790990,0.17517119,0.19093527,0.22142414,0.21750709,0.23760408,0.25738581,0.25379917,0.25393307,0.25565901,0.23381983,0.21625353,0.20408875,0.17940310,0.18074837,0.15099673,0.14769860,0.14008007,0.14302264,0.14223728,0.14463458,0.16684135,0.17054879,0.19710166,0.21652071,0.24223358,0.27707852,0.31272792,0.32934325,0.37754556,0.42580765,0.46814909,0.50402154,0.52399958,0.53877137,0.57227753,0.60215631,0.60106378,0.62163694,0.59050356,0.58147154,0.54847918,0.51991972,0.45273926,0.43102089,0.38774368,0.33749743,0.30670473,0.28039792,0.25947700,0.24407647,0.24971432,0.22656329,0.22397912,0.24293722,0.22855500,0.22198754,0.22089203,0.21061013,0.18197966,0.17342076,0.15934952,0.14844066,0.16321793,0.17324535,0.16666704,0.19285408,0.22503310,0.25823439,0.29076467,0.34382601,0.38756603,0.40587422,0.44900519,0.44253249,0.48101221,0.47906508,0.46547552,0.43559813,0.41763060,0.37051563,0.35584002,0.33157963,0.30218799,0.27694712,0.27443036,0.25999133,0.23707843,0.22737304,0.21563315,0.19727381,0.17323423,0.15354983,0.14399072,0.10765475,0.10750976,0.09748914,0.09105372,0.08323122,0.08262834,0.08922366,0.09218518,0.08173037,0.09291235,0.10300912,0.10401386,0.10860364,0.11453358,0.10648002,0.10706374,0.11406180,0.12743575,0.13310579,0.12623807,0.12177115,0.12252288,0.14298717,0.13689713,0.14302375,0.13889703,0.13088319
0.01122144,0.01089673,0.01833590,0.01961800,0.00969203,0.02469047,0.01783556,0.03008681,0.01509318,0.00682059,-0.00713238,-0.00566326,-0.01190994,-0.01223336,-0.01784137,-0.02397233,-0.01415566,-0.01839774,-0.01062329,-0.01809288,-0.02738243,-0.01685640,-0.01702987,-0.00147579,0.00438699,0.01303122,0.01276877,0.01819839,0.03228346,0.02924477,0.01708334,0.01342646,0.00012882,-0.00735047,0.00160198,-0.01418890,0.00464178,-0.00596621,-0.00659903,-0.00349768,0.00634578,0.00519704,-0.00039707,0.00194316,0.01155520,-0.01053721,-0.00137169,-0.00723719,-0.00050418,0.00688891,-0.00555833,-0.00852296,-0.00956250,-0.01074630,-0.00510214,-0.00595915,-0.02053980,-0.00876205,-0.01375892,-0.01169335,0.00209642,-0.00606054,-0.00179968,-0.01471965,-0.00775416,-0.01268045,-0.01195687,-0.01065074,-0.00274561,-0.01043221,-0.01428299,0.00229526,0.00376350,-0.01003320,0.00190530,0.01139647,0.01267173,0.03144580,0.03152407,0.05576083,0.06891067,0.09604968,0.12206570,0.16063568,0.20232749,0.25233259,0.29883281,0.35995318,0.41566997,0.42845081,0.47168190,0.50702776,0.48438890,0.50072369,0.46334838,0.45728302,0.43959150,0.43160501,0.41979611,0.37053787,0.35929308,0.33752264,0.32230110,0.29348107,0.24602934,0.21127224,0.17011575,0.13141249,0.11696782,0.09283704,0.08538569,0.08483857,0.09817368,0.10807700,0.11804920,0.10681072,0.12567831,0.11369240,0.11296678,0.10409960,0.09387482,0.06912418,0.05984940,0.04964187,0.04215914,0.04643967,0.04500639,0.05388935,0.05825360,0.06731249,0.09054721,0.10679117,0.12143444,0.14125977,0.15530960,0.15381047,0.16019170,0.16765352,0.15412413,0.15568902,0.13097794,0.12743148,0.11538460,0.10466799,0.09616845,0.08125005,0.06270937,0.06119844,0.05323668,0.05592976,0.05979069,0.05680896,0.06651733,0.07217521,0.09636611,0.08915272,0.07809553,0.08018793,0.06874485,0.07125377,0.06096860,0.04210166,0.05211406,0.03967928,0.04035691,0.02661070,0.02105306,0.02607409,0.02482472,0.02352130,0.02187141,0.02865920,0.04135411,0.04485109,0.04834803,0.06090836,0.07748973,0.10173037,0.12004107,0.13973451,0.17395590,0.20206020,0.22913345,0.25826657,0.29500070,0.31779275,0.34982357,0.35977870,0.34923182,0.36593022,0.34676870,0.32361314,0.30746129,0.28093485,0.25234991,0.22711726,0.20617820,0.17418698,0.16918304,0.15721873,0.16999879,0.16623087,0.17489373,0.19115732,0.20532621,0.23085125,0.25545924,0.28655336,0.32226003,0.35030066,0.36911631,0.41103497,0.39692562,0.44090027,0.45081941,0.44763588,0.49624617,0.49495868,0.47154292,0.46936112,0.47483594,0.41877150,0.39991217,0.37975841,0.35543788,0.30769443,0.28889600,0.25336435,0.23628028,0.23774845,0.22100919,0.21534799,0.23169037,0.24476692,0.24505017,0.24560347,0.25572180,0.23361995,0.23428779,0.21232105,0.18413894,0.17549882,0.16038293,0.15458763,0.13469667,0.13134086,0.13522819,0.15440338,0.16680584,0.19049088,0.21115060,0.25019597,0.28035826,0.32570644,0.33882221,0.35706776,0.37000916,0.35745754,0.35293129,0.35027924,0.33893673,0.30659716,0.28043558,0.24887153,0.25061506,0.22619655,0.21008017,0.18855809,0.17777546,0.18102325,0.16325236,0.13579306,0.11609089,0.11776947,0.10106839,0.08392183,0.08331920,0.07595494,0.07816876,0.06549936,0.07755538,0.07138137,0.07363679,0.08463214,0.08363422,0.09838619,0.09894787,0.09417395,0.10677063,0.10936159,0.11444513,0.11259036,0.12239683,0.14054829,0.14688793,0.14801416,0.14824637,0.16383018,0.15661232,0.16566901,0.16635466
-0.00109765,-0.00550583,-0.00479167,-0.00710840,0.00346341,-0.00491740,-0.00140294,0.00238369,-0.00567758,-0.01376548,-0.02706490,-0.02222079,-0.03109169,-0.04059625,-0.04955364,-0.04468116,-0.04513417,-0.04194158,-0.05348557,-0.05280212,-0.04372930,-0.03353082,-0.04782016,-0.03972335,-0.01892042,-0.00831857,-0.00269898,0.01423318,0.01721898,0.01630676,0.00542335,-0.00674124,-0.01726727,-0.01858108,-0.02225831,-0.01540456,-0.01287857,-0.01658296,0.00128709,0.00549174,0.00994410,0.01884091,0.00401818,0.01033929,0.00475522,0.01220621,-0.00808271,-0.01226816,-0.01107846,-0.02171734,-0.02332418,-0.03607941,-0.04138375,-0.03000672,-0.03718404,-0.02960052,-0.03870133,-0.02967549,-0.03063222,-0.03650471,-0.03532551,-0.03181612,-0.03053577,-0.03655603,-0.04299111,-0.03115061,-0.03013519,-0.02713672,-0.03003082,-0.03439521,-0.01763283,-0.02536854,-0.02447384,-0.01534489,-0.01254473,0.00978384,0.01576906,0.03027896,0.03724073,0.05517120,0.07982229,0.08693933,0.10295817,0.13414117,0.16305089,0.21685624,0.25479349,0.29129547,0.34230367,0.35560750,0.39076556,0.39726256,0.39128852,0.37268634,0.34350892,0.32853207,0.30362076,0.30462667,0.30338046,0.29173303,0.28849514,0.27926260,0.26968756,0.23308624,0.21280975,0.17135831,0.14196021,0.11718341,0.08417372,0.05700201,0.04284304,0.02715712,0.00826023,0.01735782,0.01333612,0.01429393,0.00000170,0.00415085,0.00628877,0.01112425,0.01139514,0.00538577,0.00556141,0.00000898,0.00576110,0.00508909,0.00564938,0.02719620,0.03292895,0.05929328,0.08269238,0.09648134,0.12345893,0.14920186,0.15909206,0.17399642,0.18570815,0.20329745,0.18423247,0.19246976,0.17488247,0.17189951,0.16326342,0.14275609,0.12463383,0.12014453,0.08955752,0.08242509,0.07329055,0.06536120,0.06089301,0.04498949,0.04291686,0.03876680,0.04182917,0.03320943,0.04514674,0.03965389,0.02298529,0.03061132,0.02393044,0.01774416,0.00697975,0.00597243,0.00777500,0.00848704,0.00881673,0.00752020,0.00683996,0.01088618,0.01778359,0.01596738,0.02442692,0.03725071,0.04667412,0.05505682,0.07512739,0.09730142,0.12426019,0.16132085,0.20570607,0.22873969,0.27027715,0.31455776,0.36340805,0.39827900,0.41509389,0.43165676,0.46122878,0.45242377,0.44109738,0.41262622,0.37295886,0.35787296,0.31514676,0.28178858,0.23578935,0.20884164,0.19228154,0.16771937,0.17586680,0.17572235,0.17005849,0.18335690,0.20774283,0.22335423,0.25102979,0.25770805,0.29378173,0.29193112,0.30873970,0.31188549,0.32842598,0.30495310,0.29455860,0.28157664,0.25915364,0.23661549,0.24175136,0.20746789,0.19513945,0.18069125,0.16198120,0.14593616,0.12833566,0.11207780,0.10797121,0.11267150,0.11671755,0.13887438,0.13350357,0.16529560,0.18469919,0.21204727,0.22604161,0.23532762,0.24416094,0.24822696,0.21467792,0.21168385,0.18623938,0.17619569,0.15391158,0.12851392,0.10724258,0.07992610,0.08687140,0.06387732,0.07089560,0.06779010,0.07951545,0.09380701,0.11755716,0.12773217,0.14596732,0.16669784,0.20485494,0.21020688,0.24571078,0.25900857,0.25441065,0.26196876,0.26656626,0.23678903,0.22848920,0.20690963,0.20617321,0.17501089,0.16280624,0.15757969,0.14515532,0.12761082,0.11165920,0.10571710,0.08454972,0.07629876,0.07455266,0.05350846,0.06077389,0.05517013,0.05912423,0.06210941,0.05448850,0.07301729,0.07835169,0.08829714,0.07681722,0.09586598,0.10102880,0.11023160,0.11637810,0.12963950,0.14411762,0.14521369,0.15279314,0.15012448,0.15781759,0.15841447,0.17505297,0.16928317,0.17384923
0.02549758,0.01813004,0.01510443,0.02356497,0.01380091,0.01614358,0.00995099,-0.00273867,-0.00262555,0.00216107,0.01247827,-0.00204278,-0.00345185,-0.00199272,-0.00728073,-0.00934955,0.00279562,0.00272711,-0.00845038,-0.00070715,-0.00440146,0.00286758,-0.00638218,0.00123335,0.00475088,0.00187992,0.00424089,0.00395746,0.00824284,0.00590765,0.01817960,0.01399349,0.01310876,0.01609331,0.02581353,0.02741945,0.04795676,0.07161040,0.08531653,0.09388723,0.11361296,0.13567488,0.12480203,0.15174170,0.12346915,0.11610492,0.10165182,0.07445016,0.05393461,0.04792767,0.03298306,0.01659199,0.01878192,0.00721108,0.01130158,-0.00090656,-0.00042014,-0.00512185,-0.00482984,0.00478295,0.00394306,-0.00269504,-0.00007232,0.00981717,0.00121987,0.00128264,0.01237846,0.00303443,0.00521483,0.01236466,0.01395243,0.00991974,0.02720110,0.03401021,0.05255401,0.08036395,0.11744652,0.13048686,0.15508763,0.15622062,0.15569466,0.16831634,0.19148477,0.21290283,0.24210272,0.27210876,0.31237342,0.36044546,0.41766645,0.44370246,0.46658844,0.48573203,0.48307628,0.47077597,0.46485496,0.44661346,0.39815470,0.37349729,0.35606117,0.30747673,0.28245795,0.22787758,0.20614514,0.17504464,0.14573399,0.11419430,0.10218166,0.08880407,0.06536311,0.05400950,0.05441719,0.05342466,0.05623596,0.06530599,0.07781375,0.07469668,0.08624189,0.07924786,0.06912744,0.07698322,0.05851694,0.05602038,0.03700373,0.02739456,0.03365876,0.03268940,0.02403255,0.02659638,0.04156788,0.03773061,0.05530374,0.05229308,0.06434120,0.07726482,0.09378236,0.09536224,0.11718833,0.14327381,0.16157952,0.19789179,0.20951937,0.22854533,0.24015677,0.25247111,0.26168430,0.24316106,0.23687469,0.23036867,0.20169689,0.17815855,0.17090348,0.14622031,0.15059552,0.14616141,0.13433064,0.13949650,0.13193197,0.11490991,0.11829194,0.10292525,0.06972051,0.07642421,0.03990585,0.04412877,0.03385187,0.02839847,0.03109456,0.03609113,0.02849574,0.03115708,0.03908906,0.04319786,0.04364450,0.04940645,0.07086438,0.07851889,0.08893636,0.11358623,0.15157485,0.16700806,0.19732429,0.22397005,0.26986745,0.32401253,0.35762429,0.37449084,0.39697675,0.44020980,0.43267800,0.43106464,0.41614526,0.40824170,0.37053278,0.33164444,0.31418461,0.26992914,0.23047789,0.19489802,0.16303119,0.14883436,0.12917619,0.11860541,0.10696292,0.10377489,0.10408147,0.12019590,0.12759463,0.13828020,0.15528581,0.18456475,0.19180904,0.21688559,0.24976612,0.27128863,0.29702882,0.29512724,0.33430838,0.32961150,0.34067831,0.35028579,0.34640090,0.29355100,0.29844480,0.28345882,0.24726709,0.22662076,0.19971819,0.16612421,0.15562441,0.13909206,0.12200906,0.11822763,0.11073568,0.10206917,0.10237269,0.10259838,0.10302921,0.10484818,0.09222045,0.08626697,0.09010881,0.08568715,0.07944670,0.07361060,0.07524248,0.09259013,0.07804210,0.09801588,0.11556015,0.13295833,0.16215037,0.17931329,0.22204142,0.25984136,0.28783113,0.30842576,0.33127465,0.34574261,0.36997869,0.38142214,0.37945945,0.39450115,0.40826418,0.39885543,0.36718762,0.38200246,0.36480713,0.37306898,0.35372110,0.35469395,0.31901394,0.29482677,0.26174284,0.21557564,0.19311702,0.14563069,0.12369545,0.09930913,0.08002566,0.08116498,0.06386185,0.07059301,0.08184354,0.08304912,0.08639117,0.08626680,0.09356197,0.09510802,0.11027651,0.11622461,0.12183807,0.12472496,0.14187704,0.14979157,0.14315738,0.15264684,0.17022854,0.16237345,0.17579343,0.17346443,0.17691077
-0.02856043,-0.01795830,-0.00889015,-0.01053950,0.01089700,0.01664052,0.00815232,0.00432639,0.00660562,-0.00286240,-0.00194351,-0.01690366,-0.01960117,-0.02500057,-0.03015063,-0.03531396,-0.02814352,-0.03288579,-0.03166138,-0.02955398,-0.02704508,-0.02769907,-0.02899357,-0.01653450,-0.01461011,0.01044284,0.02276046,0.03041092,0.03528717,0.02203776,0.02290912,0.01617822,0.00252656,-0.00422902,0.00504290,0.00494139,0.01843969,0.03903257,0.05827562,0.06344315,0.07842843,0.09405319,0.08770152,0.09189157,0.09134232,0.07129123,0.05665562,0.04000780,0.02348533,0.00565270,-0.00478726,-0.00217290,-0.01214986,-0.01577687,-0.02669146,-0.00906278,-0.01256368,-0.02648294,-0.02563452,-0.02903363,-0.01767628,-0.01646930,-0.01929016,-0.01370236,-0.01404058,-0.01898890,-0.02917130,-0.01570565,-0.00713039,-0.01195473,-0.00690466,-0.00729069,0.00243189,0.02148168,0.02447470,0.05292818,0.07370745,0.08435382,0.08990222,0.08967229,0.09563883,0.07866193,0.06853990,0.07117267,0.06867756,0.08782294,0.09682705,0.09803131,0.11976816,0.13928429,0.16717411,0.18684479,0.22164759,0.22963534,0.26291784,0.28800001,0.31684699,0.34968433,0.37350864,0.39936036,0.38512038,0.39980665,0.37191177,0.34233457,0.30786228,0.24405293,0.21162932,0.15413700,0.12077650,0.09145435,0.05552038,0.04804274,0.04477363,0.04059123,0.04027904,0.04635913,0.04811800,0.04654926,0.03278990,0.03640774,0.03908456,0.03020528,0.02616264,0.02678562,0.02141214,0.03934254,0.03571335,0.04812419,0.06985643,0.09794756,0.11302652,0.14106329,0.16867314,0.19049891,0.22063685,0.23833073,0.24060542,0.26071018,0.26228514,0.28520526,0.28979238,0.30201088,0.28314142,0.28236660,0.26880861,0.24837526,0.23355792,0.21184017,0.18538205,0.17042886,0.15817407,0.15665433,0.15194398,0.14633675,0.15629853,0.16176296,0.15736831,0.15801846,0.13745581,0.11541401,0.10068262,0.07289338,0.05942228,0.03524551,0.03943245,0.02700813,0.03560814,0.03320166,0.02609702,0.02082871,0.03345517,0.01631405,0.03330216,0.02691862,0.02977591,0.04213482,0.03574438,0.05388824,0.05211929,0.05603833,0.07096840,0.08245308,0.08566680,0.09447064,0.09966389,0.11803510,0.12050840,0.12647714,0.12049104,0.12505696,0.12581345,0.11124294,0.12360591,0.11428857,0.10553595,0.10224823,0.09703400,0.09701011,0.10894018,0.11950496,0.13118007,0.14094060,0.16937260,0.19713162,0.22975703,0.27065734,0.29612385,0.33944777,0.37751813,0.41109322,0.43384455,0.44951929,0.48295538,0.48146923,0.49659623,0.50840561,0.48506325,0.49286139,0.45027311,0.42766396,0.40784391,0.37203779,0.35913316,0.31431902,0.28433489,0.26008598,0.22600478,0.21844333,0.21627947,0.20390736,0.22055504,0.22200290,0.25492180,0.26790114,0.28461064,0.28370033,0.28747376,0.28404664,0.26839121,0.25646538,0.22570956,0.21261043,0.18735386,0.16076326,0.12573580,0.11388840,0.11260990,0.12249605,0.12385678,0.15593975,0.18184547,0.21596245,0.25286812,0.30164342,0.34111015,0.38509134,0.42603609,0.48116211,0.50336202,0.50304515,0.51455028,0.51853569,0.49925028,0.49113277,0.46892943,0.45658066,0.44076916,0.41860282,0.41776131,0.39351247,0.35734158,0.31645697,0.28031910,0.23842343,0.20013966,0.16090378,0.13371876,0.11175161,0.09174807,0.07576293,0.08118281,0.07212949,0.07797529,0.07650440,0.06581846,0.07374335,0.06121459,0.06718779,0.07521760,0.08808035,0.08192531,0.07708317,0.06762934,0.08772576,0.09162053,0.08767434,0.10679653,0.09500789,0.09961690,0.09025335,0.09510932
0.02685121,0.03164177,0.03355750,0.03734023,0.04683041,0.04060782,0.05540139,0.04795604,0.04199173,0.03765920,0.02694889,0.01948957,0.01452493,0.00424006,0.00609757,0.01200424,0.00480610,-0.00708019,-0.00710709,0.00341663,0.00209936,0.00973077,0.00312212,0.01503908,0.02718023,0.02893034,0.05139897,0.06692450,0.06381220,0.07765368,0.06422608,0.04263116,0.05029777,0.04010417,0.04873957,0.03926530,0.05560276,0.08244114,0.09401973,0.10946000,0.14366390,0.15419662,0.15909878,0.14007841,0.14390483,0.12304843,0.11364733,0.08603294,0.06977270,0.04331721,0.04054317,0.02678484,0.02605867,0.01625605,0.00550781,0.01143691,0.01749332,0.00329760,0.00816002,0.01016424,0.00187872,-0.00010749,0.00274889,0.00732368,0.01329974,0.00936598,0.01129310,-0.00537826,0.00674318,0.01613619,0.01896760,0.01842790,0.03209720,0.04286147,0.05331481,0.08293155,0.11878375,0.12133998,0.14513131,0.14417189,0.13915148,0.13540600,0.12060396,0.12250024,0.12816727,0.13489641,0.14259781,0.15768359,0.19412754,0.19990817,0.20940976,0.20496907,0.22573344,0.22621118,0.23709945,0.24421115,0.24325431,0.24522067,0.26447181,0.29356953,0.31170889,0.31333955,0.31320223,0.30883558,0.27666626,0.25007358,0.21191771,0.17594016,0.13548049,0.10080323,0.08448695,0.07056964,0.04768279,0.06512751,0.05974548,0.04738380,0.04837183,0.05827834,0.05598580,0.04909929,0.05111624,0.04287326,0.04019254,0.05188656,0.04889397,0.04550932,0.05438391,0.06970823,0.07512384,0.10074154,0.11819788,0.15284274,0.18389755,0.19984941,0.23605635,0.27112524,0.28222025,0.31544531,0.32593598,0.33969630,0.36060097,0.35495280,0.35553483,0.34896870,0.34849254,0.30453434,0.29632011,0.26758212,0.23910258,0.20456335,0.17778093,0.15795026,0.13045520,0.11557284,0.09101606,0.08438449,0.06587397,0.06386530,0.06750049,0.05206659,0.04822258,0.03799565,0.03734232,0.03781284,0.02783515,0.02805612,0.03335163,0.03114066,0.02494552,0.01733991,0.03822605,0.03489803,0.03691316,0.04386415,0.04560265,0.04588622,0.05863983,0.06240357,0.08403022,0.08132674,0.10423385,0.12598351,0.13407278,0.15319777,0.16037597,0.17882292,0.20669268,0.20526927,0.20806017,0.21019839,0.19716271,0.20901517,0.19030793,0.18325738,0.16555911,0.15009000,0.14078771,0.13387589,0.14340407,0.13835139,0.14999364,0.14463355,0.17600684,0.19499691,0.23603279,0.25414948,0.27874986,0.31228117,0.33530974,0.35471604,0.38689327,0.37458984,0.38403437,0.37684151,0.35984105,0.34177360,0.33678789,0.30372767,0.29093390,0.27248229,0.23989343,0.21320355,0.21316461,0.18144896,0.16402153,0.16607184,0.15069136,0.14395135,0.15774734,0.16584529,0.18020511,0.20085359,0.24219475,0.26114463,0.28477507,0.29569008,0.30758617,0.29904830,0.30054461,0.27283272,0.25312456,0.21384802,0.20689472,0.15821206,0.14543402,0.12399112,0.11846662,0.10265259,0.09926592,0.10549094,0.09656504,0.12115251,0.13940334,0.16638422,0.17341981,0.21839245,0.25827439,0.30693387,0.34899790,0.37227059,0.40882567,0.43233469,0.44121767,0.42810187,0.39683884,0.37373121,0.35399197,0.35428473,0.32223683,0.29675893,0.26676851,0.26971891,0.24815267,0.20868207,0.18271373,0.14803104,0.12120302,0.10237620,0.07201612,0.07195214,0.06236885,0.07377744,0.06187920,0.06729168,0.06511569,0.07261708,0.08189220,0.06372550,0.07855563,0.07513200,0.08079911,0.08061302,0.09125910,0.08929151,0.10363087,0.09974481,0.09451252,0.09151346,0.09717162,0.09055110,0.09934000
0.07954714,0.08921471,0.07699253,0.07942499,0.08726114,0.07500285,0.07916941,0.08421596,0.07256684,0.07344706,0.06671216,0.06390500,0.07609212,0.07572813,0.06761767,0.06422668,0.06845955,0.06620934,0.06211308,0.06749691,0.06572324,0.06763953,0.07578873,0.06518691,0.07387805,0.07807341,0.07064078,0.08235495,0.07543655,0.08794089,0.07786424,0.08240896,0.07537956,0.07194119,0.09383698,0.11261612,0.13910993,0.14903676,0.16875810,0.19506584,0.21214601,0.20793422,0.23365764,0.21473613,0.20540075,0.19180333,0.16508190,0.14503738,0.12000033,0.09059551,0.08601887,0.07281794,0.07102537,0.07260181,0.07656045,0.05955330,0.05413260,0.06475724,0.06082905,0.06233641,0.06298650,0.05313715,0.06347971,0.06055977,0.06245606,0.05400477,0.05335721,0.06855523,0.05553739,0.07180100,0.06553946,0.07547445,0.07889622,0.10674848,0.11970412,0.13497600,0.16703514,0.18931983,0.20597435,0.21375226,0.19592434,0.18918851,0.20138224,0.19581999,0.21653017,0.22276088,0.26481453,0.29778576,0.33578323,0.37239913,0.37703659,0.42572763,0.44009388,0.45405242,0.43002746,0.45691918,0.46083201,0.42739994,0.40590201,0.38216351,0.35542823,0.29626879,0.26966733,0.24080419,0.19244177,0.17688695,0.14983318,0.12961166,0.10798764,0.11592816,0.10837950,0.12573160,0.13691009,0.14193627,0.15921789,0.17062047,0.16054756,0.14914640,0.15420141,0.11924350,0.11988192,0.11148032,0.08103131,0.08225178,0.07784675,0.07440408,0.06924732,0.06330473,0.07841195,0.07150854,0.08382926,0.08748706,0.10168640,0.12163449,0.12426066,0.14438476,0.15741895,0.20038005,0.22874718,0.26201899,0.28984032,0.29716060,0.32307125,0.32177364,0.32425449,0.32962416,0.28173694,0.28126629,0.26064432,0.24009167,0.21653497,0.21246759,0.20507986,0.20600807,0.20749851,0.21205065,0.21176514,0.17894592,0.16849050,0.15668299,0.12187744,0.11621524,0.09053959,0.07516717,0.06724571,0.06251687,0.05455430,0.04423286,0.05517953,0.05427857,0.04375920,0.05795294,0.05874904,0.05026025,0.06289785,0.06144720,0.06322796,0.07815589,0.09488409,0.10842188,0.12604605,0.13460137,0.14659560,0.16105626,0.18218528,0.18015797,0.19269294,0.21069450,0.18851703,0.20148740,0.20078568,0.17258207,0.17557575,0.15800878,0.13205900,0.13132766,0.11573062,0.11071291,0.09760806,0.09926690,0.09662579,0.10200098,0.09266240,0.11196757,0.11808614,0.13108037,0.16150705,0.17374415,0.19596207,0.23774748,0.26446930,0.30598260,0.33139832,0.38680377,0.42093664,0.46316814,0.49016644,0.49820478,0.50111249,0.51549699,0.49450981,0.48271770,0.45353502,0.40811430,0.37675159,0.32560741,0.27942752,0.24644769,0.20787464,0.18233974,0.15893751,0.15478389,0.12211950,0.12612168,0.11587734,0.11569399,0.11899975,0.11353658,0.09960759,0.09115734,0.09681159,0.08533246,0.08431863,0.08452319,0.08444464,0.10506977,0.11632060,0.13824803,0.17306566,0.20087497,0.26139096,0.28698928,0.33010005,0.37456599,0.42255074,0.43532358,0.45406054,0.49213087,0.48163593,0.48634639,0.51187156,0.50163881,0.48819823,0.47621377,0.45101030,0.44534405,0.47240933,0.44360617,0.43888042,0.42315934,0.39930281,0.36332334,0.30287273,0.24155955,0.19829301,0.15534769,0.11810013,0.09866622,0.06570565,0.06949406,0.04733759,0.05347523,0.05220241,0.04665279,0.04762283,0.05193192,0.04630469,0.05855542,0.05029068,0.06612396,0.05912160,0.06676183,0.06591410,0.06426658,0.06464770,0.08761130,0.08030558,0.07200912,0.08023899,0.07964426,0.08172993
0.07135163,0.07958418,0.07701028,0.08669546,0.10614205,0.10685636,0.10204632,0.09242809,0.09852983,0.08825105,0.07703021,0.07084416,0.07235084,0.06367138,0.06890906,0.06562549,0.05474867,0.05415716,0.05656875,0.05787153,0.06194837,0.05799503,0.06345108,0.07069260,0.08655355,0.09272950,0.09983869,0.11655434,0.11326535,0.12187624,0.11179382,0.10599984,0.09719525,0.12001397,0.12115574,0.15495732,0.18411033,0.22147890,0.27769271,0.30529031,0.32545622,0.35011589,0.35901659,0.35171798,0.32315043,0.27992408,0.24624207,0.20461024,0.16869308,0.15419574,0.11150224,0.10603841,0.08438985,0.07981951,0.08916994,0.07381545,0.07444730,0.07995268,0.08005292,0.07055228,0.07741092,0.07230615,0.06429169,0.07037379,0.07744129,0.07811842,0.07182664,0.07502847,0.07008341,0.08989210,0.08824250,0.10119118,0.10973288,0.14648886,0.19606081,0.22814538,0.27495672,0.30266671,0.30581038,0.31162800,0.26383611,0.21981825,0.19417659,0.16656014,0.15105503,0.15836919,0.15102709,0.14941290,0.18298190,0.18539690,0.19349246,0.23259319,0.23399672,0.27547175,0.28050180,0.31830645,0.32933081,0.35097660,0.39347704,0.41314991,0.41689250,0.42336482,0.40851742,0.37295724,0.32624113,0.29562516,0.26636963,0.21213818,0.18757879,0.15279264,0.14619313,0.13481489,0.12465372,0.11864334,0.11690782,0.10785140,0.11190144,0.10788670,0.10850524,0.11474219,0.10747445,0.11080424,0.11557948,0.11489064,0.12126505,0.12595142,0.13297996,0.14523452,0.15902085,0.18585864,0.21851398,0.23738936,0.28124555,0.32039391,0.34792229,0.39487010,0.42333037,0.48157227,0.51585568,0.54036417,0.57182047,0.62277834,0.61399721,0.61461520,0.59468943,0.56626410,0.54879012,0.52004066,0.45722337,0.39998211,0.35793141,0.31589656,0.28720176,0.25150952,0.25049381,0.22691969,0.21454623,0.21214857,0.19536204,0.17454155,0.16213136,0.13793872,0.11755915,0.12939433,0.11869402,0.11489965,0.11666246,0.11733415,0.10530314,0.10269253,0.10923072,0.11413205,0.11503023,0.11821453,0.11449386,0.12916988,0.11893250,0.12555142,0.12663217,0.13944908,0.14316050,0.14716273,0.15874702,0.15585266,0.16360345,0.16133640,0.17295336,0.16992783,0.17394231,0.16433433,0.17701354,0.17113621,0.16367859,0.15978985,0.16573266,0.16097249,0.17972193,0.17897228,0.18462831,0.18532165,0.21991999,0.24088228,0.27133973,0.29433078,0.30903354,0.34382838,0.39232575,0.41935569,0.43300629,0.45994745,0.47423570,0.46213862,0.48232664,0.48384998,0.48534516,0.49190418,0.44846621,0.45467882,0.42668989,0.39895851,0.38638662,0.33170927,0.31634148,0.30249771,0.28460348,0.26923265,0.25742964,0.25366295,0.25933110,0.27842258,0.27563133,0.31750461,0.33824504,0.33910700,0.36268906,0.37248894,0.36983506,0.35965148,0.34623384,0.31213708,0.30682639,0.26377662,0.25805124,0.23863584,0.20801505,0.21040591,0.19305935,0.20507605,0.20783285,0.21801315,0.23400369,0.28288263,0.30713139,0.34249688,0.40773651,0.46186580,0.52193074,0.59577918,0.64472616,0.67854036,0.75655964,0.75617908,0.76168988,0.75151413,0.75834264,0.71628719,0.68611646,0.65921250,0.63553987,0.60287778,0.57961545,0.50914904,0.45027813,0.40088164,0.33283399,0.27556511,0.22360326,0.19499085,0.18229657,0.16004263,0.15112950,0.15585778,0.14553216,0.14378839,0.13834414,0.13475467,0.14809542,0.15110735,0.13332550,0.15473634,0.15038666,0.14887238,0.14934679,0.14999560,0.14141724,0.15905055,0.16174165,0.15837173,0.17338496,0.16739146,0.15991597
0.02409244,0.01991037,0.02123331,0.03000112,0.03678586,0.05183999,0.04355140,0.03314076,0.03409813,0.03316118,0.02671011,0.02023728,0.02128721,0.00988197,0.00524794,0.01746249,0.00846161,0.00043395,0.00601292,0.00690284,0.01510979,0.01949967,0.01304720,0.02283211,0.02845814,0.04553594,0.03903687,0.06824128,0.05635766,0.05983635,0.05079075,0.04740084,0.04147437,0.03853957,0.03314072,0.03384717,0.05013105,0.04620476,0.07572027,0.09524647,0.08196609,0.10348239,0.09900257,0.09872865,0.09160046,0.08146402,0.08354200,0.07378022,0.05857316,0.04849898,0.03771059,0.02962926,0.03207461,0.04066557,0.02812045,0.02252049,0.01894068,0.01797571,0.03398245,0.03561383,0.02780508,0.03397424,0.03207576,0.04463715,0.02824193,0.02735590,0.02452075,0.03415910,0.04614215,0.03091213,0.03882770,0.02992244,0.04637138,0.05165602,0.07031927,0.08653323,0.09181254,0.10307345,0.11605227,0.12771557,0.11315807,0.13580235,0.12649532,0.13678343,0.15087320,0.18024386,0.20179883,0.25273157,0.27773706,0.32491478,0.35055912,0.36596782,0.42517748,0.42560434,0.45449191,0.47379644,0.49370840,0.48841731,0.50298421,0.48534128,0.49461045,0.47276542,0.44016728,0.37923554,0.34639337,0.29491531,0.24734942,0.19837032,0.17286934,0.14783253,0.14526114,0.12936968,0.14646179,0.15770072,0.15096430,0.16139958,0.15430267,0.16164449,0.14498239,0.13239327,0.11948229,0.12944209,0.11246465,0.09603581,0.09646021,0.08933753,0.10022263,0.10215348,0.11924365,0.12385112,0.13979389,0.16712994,0.18680690,0.20967257,0.21978064,0.23727038,0.26085098,0.27497527,0.28157294,0.27653381,0.28335841,0.28928518,0.26196017,0.25415644,0.24217235,0.24517081,0.21938484,0.21705465,0.20390009,0.19213775,0.18396936,0.20325077,0.19540331,0.21987319,0.24501473,0.24637016,0.24562000,0.25042118,0.22832956,0.20857942,0.17166359,0.15438825,0.13386165,0.11706591,0.09866735,0.09468783,0.08700788,0.09322656,0.08041116,0.09135801,0.08958019,0.09811922,0.08986868,0.09447171,0.09743942,0.10429611,0.09895284,0.10846296,0.12295523,0.13564341,0.13985939,0.15092081,0.17235741,0.16799686,0.18187259,0.18443160,0.21156624,0.21686365,0.20852540,0.22827464,0.21002776,0.21791893,0.20464363,0.18414026,0.18868237,0.18211772,0.16883748,0.17799816,0.16935011,0.18109893,0.20532130,0.20817918,0.22273169,0.24616223,0.27278762,0.31032901,0.34026195,0.37232192,0.41212843,0.46309690,0.49029500,0.52987200,0.55511539,0.58029286,0.62458138,0.63240288,0.65833929,0.66449587,0.66601262,0.64157018,0.62636223,0.60278369,0.56395074,0.51023591,0.48582936,0.44612662,0.38238996,0.35285680,0.34228259,0.31169592,0.31520476,0.31034187,0.29999548,0.31251525,0.31507273,0.33180477,0.31391130,0.30305262,0.30461585,0.29791583,0.29329163,0.26385135,0.24603221,0.23506680,0.21001210,0.20585350,0.21092222,0.22003443,0.24946071,0.28944843,0.31818773,0.37019931,0.41847414,0.48090274,0.51706809,0.55957100,0.56145368,0.58952460,0.59593981,0.60441298,0.59115522,0.56162289,0.55249341,0.53500710,0.50973212,0.48898012,0.48515632,0.46455825,0.47164075,0.43823347,0.41979143,0.38067367,0.34321275,0.30123576,0.25668439,0.22562375,0.19559388,0.18060495,0.15913527,0.14819026,0.14902087,0.14995505,0.15273479,0.14408919,0.14595208,0.16390202,0.15634836,0.14835414,0.15170027,0.15569361,0.15639017,0.16678367,0.15699067,0.16619792,0.16120150,0.17333954,0.17107773,0.16636770,0.17507735,0.17599425,0.16519360
0.04313059,0.05087582,0.05954677,0.06094320,0.07429169,0.06286263,0.07196037,0.05963306,0.05167301,0.04847425,0.03142047,0.03587795,0.01636943,0.01757090,0.00738241,0.00850345,0.00718086,0.00456733,-0.00221705,0.00904952,0.00737812,0.01286401,0.02030025,0.02755096,0.04933746,0.05591837,0.06548567,0.08679178,0.07857749,0.07122737,0.05727461,0.05913801,0.04616589,0.03420216,0.03751825,0.03855706,0.05059694,0.07281250,0.09891100,0.11673076,0.10506367,0.10853783,0.12040509,0.10005988,0.09496477,0.08605937,0.06591471,0.05282400,0.04116848,0.02754219,0.01788268,0.01685202,0.01654745,0.01668777,0.01570329,0.01080026,0.01398044,0.01446892,0.02512433,0.00035887,0.00902607,0.00854253,0.01000026,0.01705132,0.00387258,0.00591415,0.01110180,0.01859907,0.01826162,0.01119302,0.01498796,0.02293418,0.03233243,0.05463949,0.05562422,0.08311432,0.10152688,0.10751108,0.11530195,0.12054510,0.11845164,0.12039953,0.13182925,0.13779772,0.15824271,0.19153553,0.22244199,0.25102275,0.25738133,0.29409837,0.30831779,0.32409533,0.36414763,0.37067742,0.38529485,0.41334898,0.43395278,0.46925420,0.47680000,0.48452160,0.50277531,0.47736952,0.42544022,0.38757978,0.34476458,0.27362652,0.21783975,0.16753390,0.13129729,0.09718755,0.07116989,0.05439909,0.05138943,0.04398786,0.05462515,0.04517224,0.04108318,0.03979018,0.02788830,0.03329167,0.04971924,0.02680565,0.03548242,0.03413890,0.05175140,0.05048001,0.06934530,0.08398843,0.10779783,0.13196516,0.16173848,0.19322444,0.23169504,0.26734269,0.26713511,0.28438320,0.32123807,0.30915314,0.33013766,0.33095444,0.30536735,0.31062876,0.27893773,0.28649553,0.26985448,0.22671492,0.22098841,0.18978373,0.17628088,0.16074359,0.14364950,0.15031840,0.15241254,0.16678183,0.16994161,0.16169515,0.15603032,0.15265993,0.12143123,0.09974364,0.07948215,0.06545863,0.05397799,0.03972217,0.03312747,0.03635049,0.02900475,0.02606243,0.01973654,0.02371782,0.02314840,0.03487089,0.03449715,0.04537372,0.04816822,0.06177477,0.07141453,0.08336489,0.11274566,0.12895053,0.15114524,0.18532233,0.20293045,0.23002251,0.25237146,0.26057352,0.26478177,0.28244346,0.27423101,0.28271639,0.25927734,0.25784271,0.23045522,0.20301111,0.18990637,0.18452022,0.17944562,0.16255776,0.17028305,0.17635565,0.20118022,0.19517519,0.24161309,0.27155861,0.29750782,0.32951511,0.38610292,0.42327151,0.43838516,0.47586580,0.50547698,0.52134156,0.52856673,0.52798233,0.52860411,0.51452282,0.48783773,0.47025113,0.43264989,0.40816904,0.35844369,0.33644704,0.29625883,0.25567200,0.23932811,0.22232672,0.20577466,0.21030302,0.20964545,0.22670769,0.24731976,0.26646628,0.30090651,0.31254818,0.32706574,0.32359601,0.32520411,0.30288799,0.32290316,0.25718914,0.23594008,0.20484332,0.17004491,0.15529316,0.12441317,0.11174551,0.12159486,0.12330868,0.13576666,0.15278348,0.20188836,0.22682113,0.26619239,0.31246697,0.36738933,0.40567512,0.44553377,0.48523662,0.50336322,0.52573685,0.51895265,0.50688525,0.48117264,0.45445409,0.44207926,0.41956809,0.41523152,0.39356810,0.36528020,0.32955293,0.30109272,0.25885813,0.23553755,0.17477603,0.14137859,0.11438521,0.09915394,0.07286232,0.06863606,0.06759472,0.05529969,0.06728747,0.06427620,0.05989967,0.06595845,0.06774097,0.07016897,0.07697733,0.08947379,0.10090063,0.08797236,0.10210215,0.10203718,0.10717362,0.11626018,0.11010255,0.11969251,0.11735660,0.11733015,0.12300239,0.10871275
0.00862604,0.01287212,0.00811746,0.02169258,0.01047137,0.02148574,0.01714362,0.01557097,0.01689032,0.02811160,0.00884761,0.01925414,0.00855388,0.01167509,0.01891238,0.01123185,0.01526914,0.01453902,0.02002649,0.01218579,0.01382156,0.00521152,0.01827118,0.02119837,0.01172677,0.01858788,0.03047896,0.02768359,0.02429594,0.02815238,0.03188012,0.03123549,0.03250115,0.02802400,0.03523020,0.04814256,0.06383623,0.06539818,0.08294089,0.08554472,0.11461964,0.11327997,0.12319860,0.13107508,0.11762847,0.11207872,0.09710869,0.09718809,0.08524124,0.05887966,0.05153563,0.02789785,0.03472219,0.02744979,0.02008319,0.03165963,0.02181446,0.02370665,0.01822634,0.01959447,0.01921655,0.02262422,0.01744184,0.02688771,0.02468360,0.02624069,0.03178962,0.01914547,0.02380238,0.02862057,0.02570988,0.03341929,0.03694501,0.05024245,0.06516065,0.07473030,0.09604649,0.11116384,0.12046025,0.12813175,0.12933825,0.12947815,0.13400443,0.13299931,0.15511504,0.15718484,0.20912333,0.24519886,0.28177754,0.31766379,0.34222778,0.38747400,0.44044574,0.47098550,0.47858687,0.49619946,0.50542864,0.50567635,0.48832369,0.46623549,0.42899334,0.40102594,0.33926162,0.29391593,0.23986981,0.20138442,0.15475655,0.14158090,0.11746652,0.11244741,0.10464775,0.11693970,0.14085404,0.15406766,0.16735085,0.17622739,0.21226705,0.19856919,0.19600489,0.16943362,0.15839506,0.13869545,0.10950233,0.09450524,0.08695321,0.07081911,0.06170887,0.05237895,0.05509078,0.05934773,0.05487352,0.07032189,0.07049381,0.07358946,0.09004740,0.10683438,0.10758173,0.13981594,0.15239536,0.17386045,0.17596762,0.20724519,0.21069849,0.20957039,0.22842380,0.22511255,0.21667313,0.21332016,0.20128798,0.19991518,0.18550852,0.19511255,0.21433932,0.21721422,0.23331298,0.23642467,0.25125196,0.23293102,0.22776428,0.21426953,0.16377348,0.15013255,0.12125881,0.09792529,0.08315673,0.06894476,0.06370066,0.05323792,0.05019687,0.05602340,0.05655014,0.04400414,0.05114561,0.05522770,0.05832175,0.05874011,0.06373067,0.06400646,0.06901694,0.07672922,0.06157066,0.07827512,0.08552247,0.08935462,0.09538982,0.09477400,0.09970464,0.11164105,0.10733848,0.10679416,0.09751414,0.10356328,0.10780259,0.10874150,0.09212294,0.08308343,0.08736538,0.07836542,0.08429416,0.08714573,0.07634483,0.09258952,0.09676068,0.09899789,0.12035747,0.12606076,0.14695406,0.18275711,0.20913740,0.25491754,0.29269736,0.32658384,0.40098989,0.46575095,0.50349555,0.56206407,0.60955864,0.66995400,0.69868250,0.71329064,0.69784832,0.69531370,0.66568463,0.63602442,0.58605717,0.51737840,0.45416774,0.39842416,0.33537821,0.27782708,0.24227396,0.20216474,0.18998088,0.17435374,0.15832481,0.14514327,0.13516628,0.13151450,0.11940371,0.13125105,0.10407317,0.10895606,0.12009206,0.12674141,0.12180546,0.14380601,0.15763516,0.17919428,0.20208998,0.25528908,0.29343428,0.36177595,0.40536640,0.46960169,0.50339237,0.54735107,0.59126817,0.60214254,0.60144653,0.60420013,0.57351649,0.56007400,0.52646729,0.49793900,0.47860650,0.47179670,0.46835765,0.45765588,0.45607137,0.46616754,0.43348393,0.40470648,0.35912836,0.30236815,0.27430179,0.21052102,0.17672554,0.15091433,0.11327581,0.09353608,0.08342298,0.08858673,0.07257145,0.07888681,0.07090669,0.07347816,0.06565053,0.08429443,0.06999805,0.07178319,0.07900307,0.08216991,0.08199209,0.07390193,0.08057670,0.08027544,0.07981000,0.08273438,0.08112698,0.09405305,0.08819795
0.06045163,0.06975960,0.07749625,0.08097836,0.08526559,0.10485052,0.10217824,0.09946684,0.08659576,0.07684513,0.06439486,0.07157988,0.06214114,0.04281342,0.06124262,0.03224168,0.04185530,0.04989516,0.03905325,0.02802181,0.04909131,0.03402523,0.05008813,0.04755594,0.06368048,0.09235683,0.10411970,0.11422629,0.11492998,0.12304621,0.11007142,0.09801843,0.07460245,0.06777867,0.06138515,0.06988925,0.07233190,0.08500117,0.08296632,0.08523245,0.11998731,0.11514853,0.10803028,0.11111557,0.10045961,0.09892016,0.07838200,0.08191496,0.06743031,0.05444324,0.05799246,0.04953064,0.05652744,0.04548881,0.04521364,0.03963213,0.03842868,0.04435587,0.04512043,0.04511231,0.04547497,0.05069160,0.05001262,0.04379550,0.04297213,0.04633616,0.04173287,0.04394173,0.04734375,0.04911565,0.05234823,0.04731462,0.06064720,0.06841833,0.07371853,0.08018443,0.09264656,0.10938453,0.11885682,0.10840995,0.12336905,0.12515597,0.11804587,0.13242316,0.13441094,0.16385648,0.18918200,0.21201753,0.24557387,0.26395698,0.28909618,0.29827162,0.33263317,0.34690319,0.36658655,0.39405657,0.40824637,0.42338178,0.42716418,0.44972590,0.43811594,0.45549902,0.44808505,0.42801203,0.38741109,0.33726349,0.30045105,0.21892246,0.19782958,0.17588211,0.13951486,0.15737337,0.14473817,0.15062192,0.15412241,0.17109959,0.16301793,0.16009164,0.15557527,0.14670068,0.13586271,0.11984848,0.11107852,0.09900235,0.10193885,0.09006953,0.11107209,0.11586404,0.13885684,0.16508699,0.18272558,0.21969548,0.25019812,0.27598000,0.29584475,0.32698488,0.33698835,0.33947373,0.33999760,0.34596403,0.32099817,0.30335186,0.29538302,0.27897706,0.25659515,0.22990552,0.20741167,0.18783018,0.16118568,0.14338481,0.13623319,0.12750078,0.11443576,0.11357800,0.12099527,0.12141485,0.12078154,0.11006580,0.10191446,0.09259307,0.07960473,0.07968922,0.08600315,0.06566160,0.06654290,0.06163526,0.04796297,0.05801482,0.05969624,0.04762717,0.04497172,0.06095603,0.05817936,0.06201985,0.06700724,0.05041591,0.06587366,0.07610435,0.07746396,0.06805322,0.08071641,0.10302480,0.09533586,0.10460723,0.10243368,0.11425677,0.12441450,0.12178905,0.12004878,0.11957115,0.12640214,0.12192553,0.11299996,0.12263375,0.11583412,0.12258659,0.12309812,0.11926020,0.14099842,0.15178996,0.18158302,0.20048539,0.24509083,0.28352252,0.30803543,0.35371475,0.39845691,0.46089787,0.48158690,0.52106473,0.53929188,0.56161361,0.57808064,0.59508504,0.58300335,0.58907609,0.59695831,0.56793043,0.55526712,0.52121899,0.48680819,0.47272982,0.45298065,0.40203507,0.37988983,0.32417942,0.32703942,0.31418672,0.30122043,0.30243976,0.30617057,0.32743281,0.34540024,0.36932405,0.40605800,0.40405301,0.41966496,0.39392976,0.39637606,0.36657681,0.30784282,0.29092700,0.24259908,0.22092475,0.20097686,0.18235035,0.16520862,0.17135815,0.18608419,0.21324905,0.23007750,0.26263246,0.29329363,0.34512451,0.35946737,0.39754900,0.43783442,0.49113981,0.47963854,0.47898638,0.48412113,0.48381388,0.44669361,0.43349284,0.37773404,0.34490932,0.31355357,0.28910235,0.25851802,0.26531454,0.21855397,0.20670600,0.17965333,0.16598850,0.13997036,0.13343058,0.11276416,0.10101473,0.08312792,0.08337353,0.07829675,0.06937205,0.07539696,0.07631857,0.07920524,0.08019787,0.07920192,0.08596576,0.07580159,0.07490763,0.07141793,0.08145444,0.06736578,0.08926192,0.08817145,0.09030717,0.08475541,0.08142996,0.09082940,0.09812075,0.08403813
0.02162673,0.02702172,0.03030421,0.03003830,0.03765479,0.03614404,0.03872183,0.04701704,0.03564458,0.03409776,0.02536293,0.02111096,0.01788136,0.00717000,0.01578517,0.01471530,-0.00082491,0.00920270,0.01036443,0.00069129,0.01277762,0.01179770,0.00983378,0.00480877,0.02098490,0.02807229,0.03757169,0.04336028,0.05111862,0.04682625,0.04081119,0.04770184,0.02676239,0.04755226,0.02020618,0.03401957,0.03492588,0.04615352,0.06201900,0.06613150,0.08646668,0.09372952,0.11030830,0.09383757,0.09025159,0.07884653,0.06791845,0.05535545,0.04645942,0.02738263,0.03103582,0.02047539,0.01454884,0.01270289,0.00575681,0.01654609,0.01594730,0.01795167,0.01620250,0.01198759,0.01340358,0.01409419,0.01046042,0.01090175,0.01289892,0.01397962,0.01741410,0.01174238,0.01164434,0.01671393,0.02229225,0.02214176,0.03819941,0.03141022,0.05240022,0.06677048,0.08045948,0.09564180,0.10570374,0.10914505,0.12877363,0.12941021,0.14804559,0.16599957,0.19459338,0.23264777,0.29658630,0.32339468,0.36993319,0.42184124,0.44784030,0.48070813,0.47064322,0.48206980,0.46186514,0.44593372,0.41868261,0.39065005,0.38102979,0.36953722,0.33936316,0.32312174,0.31188537,0.27915673,0.26103070,0.22229215,0.20148456,0.16329190,0.14291315,0.12028089,0.12298319,0.12251621,0.13190977,0.14249889,0.16057767,0.17339502,0.17942141,0.19367671,0.17411595,0.15848750,0.13555312,0.11445797,0.09841079,0.09027516,0.07459854,0.06931946,0.07024491,0.07945519,0.08780131,0.08984453,0.12035830,0.12401123,0.14114976,0.16025760,0.18933417,0.19833536,0.21914409,0.22793974,0.24187755,0.24234360,0.25570821,0.24988957,0.24392466,0.24355730,0.21884008,0.21172176,0.20074787,0.17908699,0.15628003,0.15411772,0.14128475,0.11673997,0.11094681,0.08805527,0.08478789,0.07844011,0.06874826,0.07134354,0.07030678,0.06617176,0.05985482,0.05192551,0.04859171,0.04424500,0.03715348,0.04726133,0.04223154,0.04699769,0.04636959,0.04403222,0.04502341,0.05247041,0.05623402,0.06439354,0.06256038,0.07018428,0.08874481,0.09833915,0.10968980,0.12692101,0.14654711,0.15864600,0.20211600,0.21610530,0.23526864,0.26768004,0.27779810,0.27677019,0.28873080,0.29056764,0.28640570,0.27738792,0.26825294,0.25886169,0.24215995,0.21117933,0.20910437,0.17186128,0.16530815,0.16574469,0.16378642,0.17803009,0.17112902,0.18552604,0.20774322,0.23621339,0.26887849,0.28199652,0.31458691,0.34033936,0.37954196,0.40362945,0.41996074,0.44580592,0.46202303,0.47834964,0.48631313,0.48467850,0.46516817,0.47129083,0.45324112,0.45045160,0.42881714,0.40804509,0.37528895,0.35131644,0.33195219,0.30215638,0.26410676,0.26320816,0.25609738,0.23697454,0.25688960,0.26115773,0.26622959,0.27587753,0.28293580,0.26236858,0.26204247,0.23894823,0.22851592,0.20892621,0.17831616,0.17821817,0.16307917,0.15962323,0.16304202,0.17977296,0.18019812,0.20175181,0.24093955,0.25616664,0.29019239,0.29839243,0.33270642,0.36822435,0.38396955,0.40230208,0.42321028,0.43195811,0.42465356,0.40737710,0.37980339,0.36515962,0.33733431,0.30124822,0.27899735,0.25481917,0.24976253,0.22910524,0.22033159,0.20978601,0.19828560,0.16819019,0.15285158,0.13055893,0.13023158,0.11220856,0.09275515,0.09534312,0.08358148,0.08498127,0.09510047,0.08585634,0.08876540,0.10412684,0.10151900,0.10265645,0.10827414,0.10579803,0.12355349,0.12557975,0.12965609,0.13451989,0.13229140,0.13220594,0.13918893,0.15142257,0.14398531,0.15240002,0.14493030
0.06453923,0.04904345,0.04760078,0.04566260,0.05156795,0.05362205,0.05229319,0.04961818,0.04013499,0.03899021,0.02552680,0.03156852,0.02543373,0.03399988,0.03248433,0.02464984,0.01752880,0.02067346,0.01916724,0.02711520,0.01870619,0.02422763,0.01993558,0.04067868,0.04239312,0.04342025,0.05167331,0.04016543,0.06359720,0.05699598,0.05528199,0.05435069,0.03944578,0.03925017,0.05113002,0.04030680,0.05269262,0.06026134,0.07184539,0.08743764,0.08430516,0.08486151,0.09520898,0.09457725,0.09552453,0.08728105,0.07478023,0.07003101,0.05300740,0.04551823,0.04438794,0.04239128,0.02889062,0.04003702,0.03830137,0.03688908,0.03450064,0.03423826,0.03407604,0.03427737,0.03224547,0.04037814,0.04310970,0.03193482,0.03655864,0.03093370,0.04748967,0.04639671,0.04446181,0.04979079,0.04745662,0.04780219,0.05658893,0.06254031,0.08035341,0.08483315,0.11324742,0.12420887,0.13595305,0.15972325,0.16589475,0.19119821,0.23458189,0.28131596,0.32332766,0.38088236,0.42818152,0.47474198,0.50585493,0.53805281,0.53862379,0.53508676,0.52043372,0.48668054,0.45048949,0.39282739,0.37947392,0.33705012,0.33112790,0.29903275,0.27336583,0.24900467,0.22844478,0.19800903,0.18072807,0.16869719,0.13966601,0.11800241,0.10546574,0.09897050,0.07552156,0.08523853,0.05181926,0.05989788,0.06110312,0.05582725,0.06830762,0.07366342,0.06829463,0.06140963,0.06167388,0.06479958,0.06043096,0.06167360,0.07342193,0.08305357,0.07240306,0.08246576,0.08537352,0.10241914,0.12008995,0.13268701,0.13282154,0.16061555,0.16671399,0.18376610,0.18151573,0.19832325,0.18894055,0.20435409,0.19968663,0.21018305,0.20912228,0.19566313,0.18922642,0.17492702,0.16200544,0.15690619,0.15055080,0.12400672,0.11951763,0.11825108,0.12107190,0.11462664,0.10776817,0.09721403,0.09174718,0.09521474,0.09607640,0.09604678,0.08984165,0.08122137,0.06595993,0.08124656,0.07229231,0.07079105,0.07876277,0.08559346,0.08273418,0.08967458,0.09472067,0.09538649,0.10610487,0.11488623,0.13667465,0.16752118,0.19239926,0.22891600,0.25419393,0.31785026,0.35875472,0.42776223,0.47587824,0.54458209,0.56601011,0.61776414,0.62722973,0.65078034,0.65416719,0.64004755,0.60181052,0.57110195,0.52624682,0.46936305,0.42970467,0.38168640,0.34005719,0.29697358,0.25083182,0.23480395,0.21395124,0.20832296,0.20248847,0.19475537,0.21585469,0.21202270,0.21784602,0.23990798,0.24438593,0.24909194,0.25551421,0.24202870,0.25435879,0.24613717,0.25176594,0.23387974,0.22305778,0.21791434,0.20562595,0.19405110,0.17441795,0.18107082,0.15871762,0.15092353,0.15103581,0.14795365,0.15293402,0.14911213,0.13878221,0.15748138,0.15577740,0.17496787,0.18819241,0.19802753,0.20537366,0.19951401,0.20384284,0.18863842,0.19132317,0.15986054,0.17095463,0.14998578,0.13602429,0.15181155,0.13694667,0.11425260,0.11098775,0.11879049,0.12777266,0.12682582,0.13754298,0.14047644,0.16852424,0.17387856,0.20180011,0.20977778,0.22964958,0.24993678,0.27749362,0.27020951,0.28675065,0.27857178,0.26303701,0.27480118,0.26382105,0.25547256,0.24559531,0.23338528,0.22772841,0.21591821,0.19277413,0.19472232,0.17174015,0.16960071,0.15590208,0.15178788,0.13015573,0.13349329,0.12531026,0.12575020,0.13841823,0.12980611,0.14049122,0.15099650,0.15742558,0.17886870,0.17088958,0.18707272,0.19093332,0.20292917,0.21084961,0.24553579,0.24157774,0.24734619,0.26148524,0.26307355,0.26182017,0.27802105,0.28183645,0.28924693,0.28025027
-0.00101651,0.00457455,0.00218954,-0.00785858,0.00196045,-0.00073598,-0.00123056,-0.00541060,-0.01012376,-0.00141203,-0.00637535,-0.01074141,-0.01840410,-0.01820455,-0.00822623,-0.01225337,-0.02918668,-0.02624649,-0.02468910,-0.01276437,-0.02053172,-0.01411003,-0.01093232,-0.00238259,-0.00864972,0.00283355,0.00749641,0.00267476,0.01209950,0.01828564,0.01116666,0.01771350,0.00498390,-0.00888197,0.00585605,0.00009777,0.00484669,0.02129042,0.01982268,0.02804894,0.03618199,0.04473473,0.03895157,0.03179091,0.02976356,0.03641268,0.02999594,0.01283413,0.00713027,0.00569712,0.00119999,-0.00303835,0.00099886,0.00339567,-0.00166833,0.00766328,0.00421686,-0.00033419,0.01144690,-0.00661593,0.00053397,0.00644364,0.00799398,0.00713385,-0.00458853,-0.00060915,0.00472330,0.00899181,0.00763125,0.00351534,0.01394291,0.02202224,0.02093269,0.03195864,0.03769826,0.04837153,0.06612203,0.07096017,0.08580327,0.09797471,0.11549473,0.14237865,0.17073362,0.21654167,0.26878880,0.32216584,0.39921415,0.45561896,0.52983966,0.54731424,0.60407063,0.61312115,0.62787612,0.60024649,0.57119460,0.51376760,0.48449386,0.44769906,0.37256068,0.34004560,0.29013398,0.26288430,0.23062815,0.19769202,0.17407071,0.14789180,0.12354959,0.11874270,0.11480609,0.12179058,0.12206329,0.15104206,0.16863748,0.20102882,0.21666329,0.22244748,0.23550199,0.23306065,0.22691376,0.19481775,0.16006047,0.13083107,0.12026926,0.08457898,0.08081423,0.06799791,0.06771746,0.05309966,0.06075616,0.08229933,0.07938349,0.09149341,0.10456626,0.11910627,0.12151255,0.13460404,0.13991360,0.14192886,0.17053971,0.14912191,0.15384212,0.15115049,0.14462356,0.14712828,0.14243338,0.13367222,0.13637041,0.11213194,0.10198020,0.09796598,0.08437395,0.08599358,0.09058706,0.07594995,0.07106550,0.06480162,0.06237738,0.07875689,0.07238453,0.07149242,0.06755991,0.05687411,0.06453913,0.04775930,0.03189474,0.05485960,0.06301886,0.05560354,0.05826913,0.05814793,0.06323140,0.06106423,0.07562525,0.07301663,0.07611898,0.10067958,0.10436947,0.12067761,0.14024056,0.17849050,0.20682906,0.22327915,0.26046644,0.28965622,0.31797008,0.33386318,0.35929335,0.36506320,0.36589359,0.38645449,0.35928357,0.34032012,0.31845433,0.29003557,0.25461485,0.22682328,0.21400259,0.12010409,0.18259914,0.12794748,0.05353377,0.07185886,0.12478464,0.19100666,0.24651187,0.15389092,0.16906544,0.22233680,0.27358802,0.29607055,0.43050597,0.25838357,0.40377313,0.45744002,0.44351873,0.46019079,0.56371393,0.51778003,0.52529759,0.55155960,0.55333465,0.53565894,0.51194255,0.48929837,0.45234817,0.40412358,0.36727680,0.34931515,0.30546207,0.26809684,0.24168500,0.23302783,0.22642995,0.21770697,0.21295325,0.21380884,0.19682768,0.19767463,0.17682120,0.17954844,0.16493412,0.14281673,0.15699474,0.15903888,0.16891312,0.17367752,0.19870634,0.21565853,0.23881868,0.27443327,0.31245796,0.35488374,0.37867309,0.42105778,0.42912479,0.44403509,0.44037582,0.43291121,0.40362931,0.39020113,0.37679409,0.34820904,0.31173602,0.27406256,0.25699389,0.23788706,0.22218157,0.20575452,0.19624409,0.19984676,0.18251806,0.16785615,0.15605991,0.14828383,0.12917433,0.11953631,0.11251908,0.11890913,0.11394697,0.09704005,0.10194102,0.11473565,0.11522920,0.12931459,0.11890735,0.13076963,0.12816832,0.14891683,0.13798365,0.15050483,0.15637448,0.16091128,0.15897262,0.15738495,0.17037385,0.17227170,0.17823487,0.19411903,0.18360515,0.18608551,0.19282574
0.01400071,0.01470535,0.01659807,-0.00288264,0.00185281,0.00568959,0.00420469,-0.00499093,-0.00619108,0.00933883,0.00222416,-0.00965876,-0.01340066,0.00100231,-0.00947608,-0.00704384,0.00593587,0.00156671,-0.00729885,0.00891547,-0.00173314,-0.00593534,0.00195017,0.00643326,0.00613014,0.00904576,0.00336186,0.00883967,0.01283715,0.01265162,0.00557767,0.01889956,0.01376092,0.01700967,0.00861252,0.02649937,0.02432321,0.03154923,0.04230006,0.03954539,0.04862955,0.05101660,0.06029686,0.05498248,0.05409422,0.04904096,0.05109080,0.03379235,0.03603471,0.02696887,0.02598320,0.02616467,0.02481745,0.02471854,0.02930988,0.02241736,0.02407488,0.02603020,0.01918625,0.02906365,0.02382267,0.02169095,0.03122824,0.02420121,0.01392194,0.02223551,0.02995047,0.02599904,0.02605093,0.03291241,0.03255734,0.03132502,0.03751663,0.03966131,0.05477422,0.05518312,0.07650880,0.07805612,0.08628042,0.11522833,0.11728294,0.13413782,0.16631316,0.17227704,0.20471462,0.24132286,0.31244882,0.34286381,0.37228312,0.42711145,0.45564372,0.46431424,0.50622609,0.50398502,0.50988081,0.49987949,0.49303285,0.46999086,0.42118959,0.40481279,0.37963463,0.31584483,0.28754342,0.24062323,0.19324514,0.18034951,0.13156995,0.11305601,0.09893189,0.09330132,0.09573196,0.09846261,0.10046597,0.09724145,0.12833248,0.13499911,0.13421277,0.13296354,0.12938987,0.12252427,0.12153546,0.11223130,0.09652142,0.08180078,0.06787561,0.07149402,0.07527322,0.07194297,0.07612474,0.07108661,0.06795618,0.07776502,0.07843043,0.08660824,0.08729368,0.10214587,0.10405174,0.10649217,0.12289766,0.12477259,0.12947899,0.13450849,0.14977607,0.14892728,0.14053462,0.13488797,0.13369882,0.14237039,0.13229308,0.14688257,0.14824083,0.15374699,0.17292983,0.18956832,0.18601262,0.21498637,0.22197302,0.21413433,0.20532663,0.18285630,0.15803956,0.15422971,0.12467549,0.10712184,0.09364167,0.09384358,0.08304995,0.09440788,0.08036383,0.07499174,0.07779207,0.07956269,0.10125344,0.09278389,0.10181545,0.12433282,0.12672057,0.14117727,0.16912741,0.18054171,0.20201585,0.24138914,0.26783216,0.30605523,0.33526483,0.34984509,0.37174048,0.40951721,0.38677920,0.40839891,0.41006803,0.39213755,0.37418774,0.34939530,0.31587709,0.29410547,0.25677802,0.22721388,0.21291220,0.18124579,0.17033683,0.16134257,0.15555728,0.14801745,0.14460090,0.16012812,0.16060334,0.18188890,0.19696372,0.23718548,0.23743018,0.28122794,0.31283378,0.36457371,0.39652854,0.42343681,0.46844347,0.48993929,0.49012796,0.52964616,0.51387693,0.49323436,0.48271043,0.45252312,0.41471527,0.36084573,0.33190449,0.31499765,0.27240738,0.23178218,0.20668532,0.19188585,0.16773206,0.16110618,0.15528599,0.14059677,0.14526235,0.14164196,0.13779186,0.13685658,0.12956194,0.13344232,0.12375194,0.12725295,0.12326970,0.15100808,0.15264336,0.17655906,0.19384829,0.22736684,0.25754331,0.29006053,0.33122748,0.35615497,0.39791714,0.44368706,0.43084624,0.43877597,0.45204832,0.44198517,0.41652203,0.38506093,0.39929760,0.37015068,0.36713847,0.36729174,0.36556789,0.36811311,0.37122988,0.36160941,0.35868181,0.32431922,0.28870851,0.27200500,0.24241341,0.19925576,0.18693029,0.16594871,0.15317457,0.13844185,0.13659458,0.14182016,0.14130087,0.14324770,0.14627705,0.15160888,0.15525434,0.15292369,0.16757512,0.17793501,0.18473800,0.18683987,0.19368035,0.19133497,0.19452518,0.21087155,0.20813687,0.20591327,0.22511982,0.21752057,0.22255622
0.03824156,0.01803085,0.04103078,0.03318944,0.04262671,0.03725453,0.04207921,0.02106214,0.03406120,0.03465874,0.02415737,0.02335296,0.01357990,0.02203892,0.01281194,0.01925367,0.02482948,0.01979528,0.01914945,0.01590844,0.01477797,0.01096743,0.02500655,0.02439727,0.02854030,0.04157026,0.04843218,0.04349757,0.04397525,0.03731593,0.04212861,0.03894539,0.03854961,0.02051140,0.02948062,0.03326922,0.04101333,0.04315093,0.04841336,0.05937996,0.05698493,0.07200066,0.07627725,0.06984328,0.06529780,0.05161628,0.05029819,0.04296164,0.03390935,0.03103114,0.02373843,0.03272394,0.03348914,0.02231766,0.02736159,0.03342584,0.03003198,0.02326762,0.02017450,0.02083167,0.02431968,0.03347108,0.02153956,0.03188860,0.02136190,0.02903961,0.02698155,0.02957938,0.03229667,0.03264261,0.02394335,0.03527057,0.04254273,0.04277097,0.06323443,0.06241418,0.07102517,0.07317690,0.09373220,0.10028857,0.11485284,0.13453530,0.16635437,0.20246986,0.23555956,0.28317396,0.35379270,0.38405504,0.43477256,0.47054839,0.50738775,0.53599178,0.53561854,0.52610732,0.52237460,0.48081415,0.43883899,0.39988171,0.37338677,0.34225531,0.29854957,0.26562326,0.24650134,0.21552552,0.18919569,0.15897453,0.14628102,0.11966418,0.11910447,0.12555251,0.13788933,0.15527646,0.17756739,0.21516467,0.23749394,0.24336024,0.25018927,0.23814647,0.22686850,0.20647231,0.17266564,0.15007036,0.11966977,0.09462781,0.08570687,0.07588165,0.07496999,0.07629906,0.07509644,0.08059884,0.08437444,0.09821192,0.11796513,0.11093058,0.13180517,0.13170720,0.14425695,0.14017296,0.14208621,0.14405333,0.14396885,0.15191584,0.15274245,0.15459535,0.14501412,0.11065041,0.11543842,0.11451095,0.10854961,0.10981859,0.08518351,0.08776050,0.08651067,0.09070752,0.09331714,0.08704301,0.08554484,0.07294830,0.07797124,0.07302861,0.07369595,0.07339669,0.05639280,0.05823046,0.05194892,0.06234244,0.06408904,0.05952293,0.05496214,0.05618907,0.06950727,0.05266488,0.07144298,0.06683630,0.06439292,0.09767061,0.09517844,0.11250004,0.11453864,0.14498251,0.14626770,0.14982118,0.17709478,0.20887815,0.21358150,0.22800149,0.23161699,0.24769613,0.24178226,0.23747867,0.23287527,0.22003916,0.20789108,0.20155716,0.18629625,0.15505181,0.15768773,0.14598042,0.13594951,0.13487749,0.13650016,0.15504557,0.15127726,0.15440718,0.18435571,0.19253866,0.22143123,0.25491979,0.27977969,0.30706321,0.33719331,0.37723218,0.40443240,0.44887940,0.48178733,0.50725011,0.54092213,0.55290945,0.58282614,0.57223427,0.57261911,0.57091826,0.52645133,0.51017957,0.47235000,0.40312759,0.38550874,0.33868041,0.30556532,0.27357018,0.26154583,0.24626095,0.22099281,0.21919036,0.19748858,0.22340823,0.20140155,0.18258389,0.19688305,0.18055684,0.16478948,0.16378536,0.16200651,0.15888027,0.18294185,0.18048739,0.19714011,0.22438706,0.26360152,0.29251548,0.32183891,0.38131361,0.39851665,0.42800941,0.44391001,0.44653552,0.45769178,0.44420583,0.41731410,0.37711755,0.34887535,0.34393046,0.31991676,0.28007790,0.26289122,0.22456501,0.22241878,0.21478621,0.20588303,0.18519244,0.17378890,0.18210781,0.15464631,0.14024566,0.13738295,0.12530015,0.12240996,0.10876467,0.11322463,0.10368202,0.11674386,0.10646251,0.11656914,0.12673408,0.11271323,0.12701316,0.12737349,0.11618443,0.11255057,0.12482865,0.14174258,0.14441407,0.13285175,0.14673762,0.14483880,0.14849383,0.14000169,0.16287665,0.14626652,0.14688238,0.15974836
-0.00006611,-0.00471686,-0.00290751,-0.00666853,0.00018410,-0.00649840,-0.00349589,-0.00737435,-0.00077508,-0.00371337,-0.00759531,-0.01521198,-0.01548996,-0.01235764,-0.01903859,-0.00509202,-0.02231055,-0.01174776,-0.01382835,0.00077649,-0.00619254,-0.01642708,-0.01444269,-0.01465632,-0.00729144,-0.00942415,-0.01599290,-0.01282057,-0.00321661,0.00057862,-0.00347429,-0.00428478,0.00239124,0.00029338,0.00831893,0.01275694,0.03120374,0.05595439,0.06619807,0.08469970,0.09594045,0.12150969,0.11782155,0.11431486,0.09620699,0.07987978,0.06035023,0.04613965,0.02898391,0.01000394,0.00877579,-0.00719330,-0.00506922,-0.01529351,-0.01791743,-0.01329090,-0.01851954,-0.01961067,-0.02409586,-0.02419468,-0.03169750,-0.02833014,-0.01991128,-0.01113385,-0.02006112,-0.02509732,-0.00990300,-0.01937562,-0.01633679,-0.01439969,-0.02210614,-0.00618225,-0.00658220,0.02512232,0.04051435,0.04095899,0.06331143,0.08766226,0.09461929,0.10318398,0.08766502,0.08624310,0.07786890,0.08830803,0.09183805,0.11279874,0.15592016,0.17691412,0.19620214,0.23951687,0.26695166,0.29815745,0.32886410,0.35241425,0.37130402,0.39816701,0.41453577,0.40532720,0.37624946,0.36291594,0.33076877,0.27481403,0.25028906,0.19858734,0.13729154,0.12053551,0.07810431,0.06627446,0.04096724,0.03544542,0.03799952,0.03752314,0.04428931,0.05342747,0.06235873,0.06012819,0.06852435,0.06520387,0.05241010,0.04520596,0.03249940,0.01982724,0.00691431,-0.00532880,-0.00746535,-0.00766154,-0.01682337,-0.00509420,-0.00415615,-0.00731957,0.01228743,0.01946502,0.01655007,0.03821047,0.06404553,0.07050621,0.08598358,0.09243178,0.11849014,0.14001360,0.16176357,0.17629482,0.19363689,0.19612284,0.18417292,0.20119781,0.18348073,0.16531789,0.15368695,0.15366222,0.14979634,0.15355850,0.17104096,0.18546422,0.18807642,0.19465281,0.19389202,0.17688091,0.15328913,0.11606319,0.08715745,0.06488795,0.03481682,0.01626209,0.00038546,-0.00669485,-0.00761213,-0.02143601,-0.01454214,-0.01927562,-0.01885456,-0.02802917,-0.01411432,-0.01240479,0.00039126,-0.00996981,-0.00518053,-0.00239325,0.00353716,0.01471934,0.02992046,0.04552440,0.04355517,0.04826409,0.06098755,0.06979069,0.06787538,0.07403638,0.08113464,0.07458508,0.07111884,0.06416276,0.05564374,0.04933665,0.03529602,0.03260987,0.02051397,0.02524523,0.01312652,0.01142837,0.01218132,0.01427669,0.01759265,0.04518608,0.05158529,0.07761329,0.08668851,0.12569757,0.15432374,0.18718241,0.22443723,0.27534106,0.31728572,0.37407030,0.40830127,0.45061259,0.49031438,0.50244847,0.51629982,0.50822233,0.47769788,0.45658870,0.40573077,0.35741838,0.32434392,0.26602741,0.21812071,0.17994513,0.15139024,0.09738913,0.09385673,0.07116532,0.04819161,0.05405240,0.03741758,0.03974185,0.03499984,0.03279279,0.01940008,0.02087938,0.02397004,0.00264398,0.02091659,0.00981599,0.02408027,0.03492702,0.05391209,0.07440514,0.10438071,0.15079066,0.19114068,0.25302063,0.29920898,0.34745822,0.40228098,0.42237033,0.44678615,0.45414558,0.46201617,0.44919742,0.43267847,0.42484503,0.41273742,0.43742129,0.40140735,0.40242892,0.41120608,0.41167589,0.41186629,0.38658357,0.33361323,0.28280421,0.24852076,0.18753023,0.12576099,0.08356874,0.04768791,0.02688591,0.00140217,-0.01236848,-0.01665860,-0.02061275,-0.02860469,-0.03776169,-0.02317131,-0.01969197,-0.02246993,-0.01575182,-0.01290292,-0.01504346,-0.01149360,-0.01045876,-0.00577800,-0.00983910,-0.00369585,0.00139646,-0.00757372,-0.00432580,-0.01357686,-0.01521308,-0.00694831
0.02410979,0.02115319,0.02575763,0.04044101,0.04394004,0.05000074,0.04875603,0.05076673,0.04906974,0.03313709,0.02344830,0.02973097,0.02378645,0.01489599,0.00690910,0.00453166,0.00522077,0.00237508,0.00210209,-0.00042378,0.00682713,0.00587904,0.01652127,0.03087317,0.03093126,0.03275242,0.04825042,0.07516170,0.07712263,0.06017179,0.06252948,0.04814297,0.03737061,0.03321453,0.03122973,0.03872886,0.04582781,0.08237395,0.08745340,0.11031068,0.13146146,0.14150959,0.14516950,0.13918976,0.12786953,0.11578803,0.09378479,0.07258578,0.06349980,0.03080258,0.02497583,0.01725636,0.01310461,0.01166698,0.01441898,0.00044645,0.00985145,0.01566817,0.01359864,0.00741003,0.01382805,0.00576275,0.00997509,0.01376259,0.00812204,0.01114036,0.01812878,0.01874219,0.01773141,0.01637903,0.02474524,0.02382736,0.03358496,0.05238054,0.05870894,0.09059835,0.10151753,0.12757406,0.11997253,0.12381802,0.11546807,0.10345064,0.09670495,0.08839163,0.09061977,0.09650360,0.10168203,0.12235281,0.15376106,0.16158193,0.18752369,0.19905985,0.23484072,0.26076710,0.29082560,0.31547697,0.35004477,0.38273853,0.42220765,0.44204270,0.45599220,0.43650845,0.40941040,0.39042014,0.33909040,0.27814529,0.21946120,0.18398303,0.14305929,0.11577747,0.08297842,0.06885297,0.06534857,0.06201083,0.05960712,0.06115018,0.05631240,0.05844668,0.05175753,0.04348425,0.04559015,0.03878271,0.05033441,0.05032793,0.05538444,0.05507485,0.06657126,0.08817798,0.10871315,0.13027703,0.14820466,0.18234601,0.21482963,0.24532743,0.25399939,0.28196008,0.30190706,0.32437937,0.33229084,0.34557148,0.34571373,0.33745191,0.35278921,0.31262873,0.30044601,0.28712770,0.26615085,0.23853774,0.21456232,0.19982709,0.19519406,0.18948612,0.17304937,0.18937721,0.18918660,0.19114898,0.19162332,0.14907256,0.24251718,0.12471417,0.09520062,0.13718541,0.15817704,0.09519137,-0.00340284,-0.04060520,0.10875435,0.04272618,0.04371708,0.04336604,0.04643687,0.03796568,0.04473998,0.04514343,0.04225088,0.04298497,0.05896485,0.05538468,0.07398309,0.08029575,0.08708612,0.08151033,0.09564231,0.10677370,0.11249608,0.12362622,0.13379161,0.12833348,0.12513652,0.13968984,0.12785329,0.13360829,0.12409179,0.12060770,0.12174356,0.11226670,0.11940803,0.12601613,0.12848252,0.14717133,0.16610074,0.18108639,0.20843484,0.24419491,0.27947971,0.32485674,0.33896278,0.38290827,0.42448889,0.43729569,0.47436807,0.49942117,0.51162441,0.51374408,0.51907836,0.50145078,0.51276750,0.47278607,0.47365502,0.45446714,0.41338081,0.37760920,0.35029444,0.31790564,0.28574572,0.24094979,0.22516482,0.23489327,0.23119675,0.23376099,0.25899522,0.26281359,0.30065255,0.30694365,0.31193193,0.33119504,0.33733034,0.31461039,0.31926409,0.28909725,0.24197395,0.23205701,0.20138757,0.18688490,0.15272328,0.13891018,0.13170353,0.14494907,0.17095262,0.16851622,0.22203538,0.23431005,0.27149428,0.31495165,0.36984963,0.42898750,0.47553680,0.49316347,0.51353011,0.53993431,0.54642077,0.55248660,0.53455814,0.51294575,0.49236954,0.48778949,0.47675993,0.44551928,0.44453213,0.42233306,0.38644944,0.32327805,0.29966993,0.24082359,0.19459424,0.17145869,0.13506465,0.10919960,0.10596289,0.08884630,0.08629713,0.07430198,0.08210450,0.08168160,0.08681646,0.07795307,0.07457563,0.07458046,0.09476581,0.08477916,0.09514522,0.08667860,0.09485307,0.09037583,0.09717844,0.10183411,0.08608501,0.09435379,0.09850605,0.09231199,0.09736230
0.03200745,0.02335463,0.03384350,0.03916501,0.02945973,0.03534883,0.04645261,0.03869557,0.04025256,0.03161095,0.04074549,0.03117733,0.02934522,0.00982455,0.01492953,0.01280596,0.01008156,0.01233946,0.01861221,0.01964766,0.00690892,0.02874170,0.02273806,0.02998261,0.02898535,0.04423848,0.04949045,0.04878934,0.05838568,0.05998398,0.04375536,0.05315679,0.03636494,0.02838629,0.04254840,0.03808544,0.04675443,0.05205157,0.05747972,0.07370689,0.06854677,0.08881160,0.08416928,0.07955471,0.07945385,0.07099684,0.04821803,0.04906033,0.03883253,0.03961336,0.03652398,0.01813099,0.02374102,0.02561898,0.02132293,0.02964132,0.02963435,0.02819513,0.03415598,0.02470575,0.03140446,0.02966909,0.02994419,0.02768666,0.02179846,0.03905504,0.02770202,0.02764795,0.03933776,0.03448497,0.03467645,0.02713176,0.04409449,0.04763334,0.05561402,0.06882527,0.07600550,0.08807902,0.09865516,0.09263927,0.10934508,0.11497888,0.10586893,0.14722432,0.14856606,0.18464699,0.22013314,0.26611558,0.31494194,0.33548515,0.38398488,0.41813498,0.46679565,0.49477792,0.51366450,0.54539753,0.55064616,0.55066824,0.57158454,0.52576800,0.51512236,0.46432905,0.42415564,0.34982785,0.30068107,0.23695051,0.21770686,0.16879010,0.14587252,0.13728312,0.13393310,0.13422866,0.14635671,0.16905169,0.17473495,0.17882067,0.18688046,0.17090758,0.16010227,0.15203205,0.12467893,0.10436825,0.09988940,0.08242044,0.08138154,0.06443901,0.07375285,0.07625336,0.09191269,0.10852888,0.11587786,0.13393459,0.13636329,0.15909969,0.18012905,0.18028262,0.20122724,0.19263967,0.20775280,0.19931340,0.21514461,0.19977635,0.19406499,0.18420139,0.18220722,0.17335116,0.14787015,0.14996798,0.15195806,0.17083840,0.17309587,0.20118089,0.22208345,0.23461102,0.24614946,0.25718906,0.26459093,0.23511098,0.21732428,0.18537627,0.15666329,0.13421645,0.10024512,0.09968020,0.07900146,0.06544986,0.05196288,0.05984147,0.05616136,0.06409228,0.05904852,0.05499536,0.06267334,0.06050305,0.06951525,0.06685035,0.07436026,0.07971161,0.06435765,0.09028455,0.10226011,0.11361283,0.09887131,0.11638366,0.12237257,0.13185376,0.13094124,0.13728768,0.14624256,0.13476918,0.14283450,0.13541431,0.13001822,0.12453359,0.11466790,0.12076955,0.11656604,0.11549498,0.11862117,0.13369794,0.13576687,0.17030912,0.16642191,0.20201142,0.22008608,0.26562731,0.29648798,0.33634360,0.38803088,0.42930453,0.49938961,0.53549873,0.59029618,0.64022656,0.65447448,0.73007573,0.74482263,0.73908773,0.76407686,0.73379254,0.69563956,0.64776710,0.61828588,0.53123065,0.48805041,0.41942294,0.38007004,0.34330562,0.30807748,0.29306824,0.26363355,0.25752654,0.23331048,0.24524071,0.23872790,0.24781327,0.24610566,0.22966262,0.20730155,0.20582828,0.18956846,0.17171800,0.17756410,0.16223935,0.17225684,0.18448070,0.19909368,0.23287147,0.26834323,0.31823766,0.37545604,0.45986972,0.49734327,0.53662962,0.57321820,0.60191034,0.62772733,0.62618606,0.58652484,0.58311507,0.54166990,0.51139139,0.49688670,0.46499878,0.45058586,0.45904805,0.45152926,0.43457631,0.42153640,0.39055808,0.36118761,0.31769288,0.25934770,0.22436786,0.17243403,0.14327902,0.11607498,0.09978711,0.10306825,0.09125593,0.08311596,0.08133431,0.07435629,0.08096662,0.08489563,0.08574559,0.08038218,0.09246095,0.09690455,0.09712578,0.08978378,0.09809246,0.10102984,0.09953727,0.08814454,0.08337161,0.09418427,0.10683166,0.10177107,0.09788392,0.09854617
0.03404601,0.03021432,0.02348905,0.01930883,0.01432191,0.01754856,0.01910950,0.00829996,0.00109801,0.01238638,0.00558745,0.00906604,0.00974371,0.00542579,-0.00562891,0.01069636,0.00168531,0.00557926,0.00852247,0.00259137,0.01000991,0.00820992,0.01190372,0.01262403,0.00801634,0.00601865,0.00296750,0.01150169,0.02531148,0.00496853,0.00912437,0.01541746,0.01006790,0.01481073,0.03375925,0.04110142,0.03908903,0.05659031,0.06809455,0.09512992,0.09874349,0.11138990,0.11443755,0.11380947,0.10520946,0.10649440,0.07924663,0.07512155,0.04636122,0.04310564,0.03268463,0.01740300,0.01606111,0.01283509,0.01314498,0.01775761,0.00753660,0.00764265,0.01744518,0.00935912,0.01031597,0.01218996,0.01148756,0.02033811,0.01349596,0.00472066,0.01148566,0.01263850,0.01686379,0.01263375,0.01362579,0.02386187,0.02682580,0.03225666,0.05123788,0.05911582,0.08906800,0.10446029,0.11941485,0.13752905,0.13678839,0.13764403,0.15448239,0.17128515,0.19137779,0.21149998,0.26771041,0.30675088,0.34545405,0.38305909,0.41452394,0.44962267,0.45288869,0.46806025,0.46725594,0.44518728,0.45739351,0.40975494,0.37211179,0.32710506,0.32776499,0.26525272,0.23097114,0.17744841,0.14255862,0.11874966,0.10318955,0.06923773,0.05915548,0.05710342,0.06384735,0.05779274,0.06083628,0.07428421,0.09866719,0.09555066,0.09525239,0.09294214,0.10684339,0.08587954,0.07101781,0.07195388,0.04022709,0.04135622,0.03277762,0.02392009,0.02573440,0.02165888,0.01395468,0.02790110,0.02828393,0.04029419,0.04089092,0.04756014,0.05371478,0.05618653,0.06533335,0.07642218,0.09928094,0.11280333,0.12996295,0.16643740,0.16498804,0.16341589,0.18406262,0.18433855,0.18978124,0.16393162,0.16197342,0.15986725,0.14206873,0.13955185,0.14875760,0.13602973,0.15954118,0.16550067,0.14285868,0.14791531,0.14517595,0.11579320,0.09998715,0.08339096,0.06585522,0.05620291,0.03860618,0.03074113,0.03099248,0.02630893,0.03065176,0.01173728,0.02074798,0.02299506,0.02352204,0.04054967,0.04490093,0.05772337,0.06851308,0.06922871,0.09283275,0.12454063,0.14678459,0.16880671,0.20623897,0.22218382,0.24785183,0.29135118,0.30995678,0.30299027,0.32654873,0.32183666,0.32673415,0.29637444,0.27891547,0.26837107,0.24298274,0.20867644,0.17307540,0.15499340,0.13141774,0.10844908,0.08895229,0.08402960,0.07758126,0.05914252,0.05529862,0.06322444,0.07128673,0.08392510,0.11263904,0.12628188,0.15452026,0.18273494,0.20634511,0.24631319,0.27624742,0.32544491,0.36232703,0.38080207,0.39631917,0.39165694,0.40975435,0.37766356,0.35985095,0.34541639,0.30408964,0.27172903,0.23907930,0.19587411,0.16814158,0.13172465,0.11231120,0.09312482,0.08295557,0.07738994,0.05233127,0.04390332,0.04563723,0.04155432,0.03349346,0.03368851,0.03553241,0.03311335,0.03218390,0.03488940,0.03933489,0.04146180,0.05564549,0.06528766,0.08167198,0.12635542,0.13615104,0.18746687,0.20936287,0.25735050,0.28446499,0.32092480,0.34548548,0.36226523,0.33866140,0.35450475,0.35650504,0.32696899,0.33173897,0.34399014,0.31529964,0.32397883,0.32830478,0.32617276,0.32899368,0.31393266,0.29478016,0.26467376,0.23773995,0.20618239,0.16964107,0.13560850,0.09718241,0.06626830,0.05245589,0.03967682,0.02345201,0.02789492,0.02326983,0.02727526,0.02773117,0.03520145,0.03524341,0.04382967,0.05042619,0.04975446,0.04870229,0.06419634,0.07086981,0.06636793,0.07159824,0.08656903,0.08992863,0.09001812,0.09696602,0.09655919,0.08891487
