1000,1005,1010,1015,1020,1025,1030,1035,1040,1045,1050,1055,1060,1065,1070,1075,1080,1085,1090,1095,1100,1105,1110,1115,1120,1125,1130,1135,1140,1145,1150,1155,1160,1165,1170,1175,1180,1185,1190,1195,1200,1205,1210,1215,1220,1225,1230,1235,1240,1245,1250,1255,1260,1265,1270,1275,1280,1285,1290,1295,1300,1305,1310,1315,1320,1325,1330,1335,1340,1345,1350,1355,1360,1365,1370,1375,1380,1385,1390,1395,1400,1405,1410,1415,1420,1425,1430,1435,1440,1445,1450,1455,1460,1465,1470,1475,1480,1485,1490,1495,1500,1505,1510,1515,1520,1525,1530,1535,1540,1545,1550,1555,1560,1565,1570,1575,1580,1585,1590,1595,1600,1605,1610,1615,1620,1625,1630,1635,1640,1645,1650,1655,1660,1665,1670,1675,1680,1685,1690,1695,1700,1705,1710,1715,1720,1725,1730,1735,1740,1745,1750,1755,1760,1765,1770,1775,1780,1785,1790,1795,1800,1805,1810,1815,1820,1825,1830,1835,1840,1845,1850,1855,1860,1865,1870,1875,1880,1885,1890,1895,1900,1905,1910,1915,1920,1925,1930,1935,1940,1945,1950,1955,1960,1965,1970,1975,1980,1985,1990,1995,2000,2005,2010,2015,2020,2025,2030,2035,2040,2045,2050,2055,2060,2065,2070,2075,2080,2085,2090,2095,2100,2105,2110,2115,2120,2125,2130,2135,2140,2145,2150,2155,2160,2165,2170,2175,2180,2185,2190,2195,2200,2205,2210,2215,2220,2225,2230,2235,2240,2245,2250,2255,2260,2265,2270,2275,2280,2285,2290,2295,2300,2305,2310,2315,2320,2325,2330,2335,2340,2345,2350,2355,2360,2365,2370,2375,2380,2385,2390,2395,2400,2405,2410,2415,2420,2425,2430,2435,2440,2445,2450,2455,2460,2465,2470,2475,2480,2485,2490,2495,2500
0.05046517,0.04771432,0.04739297,0.03969902,0.04371960,0.04205532,0.03349333,0.04282258,0.04315478,0.03262705,0.03673246,0.03402803,0.03570211,0.02372222,0.02160560,0.02085770,0.02669239,0.02845443,0.02703171,0.02194490,0.02839548,0.03291564,0.02564165,0.02627521,0.03384963,0.03191361,0.03292180,0.03625558,0.04034579,0.04160918,0.03624733,0.04433433,0.04344181,0.04792976,0.05739299,0.06986251,0.08352739,0.09898966,0.12699539,0.13613535,0.16334553,0.16994257,0.16507305,0.16413038,0.15995694,0.15097964,0.13562298,0.10180727,0.08097007,0.06773691,0.05683146,0.04731154,0.05221717,0.02769231,0.03616561,0.03687510,0.03058704,0.03006454,0.03675932,0.03108002,0.02989079,0.02936310,0.03686031,0.03439012,0.03715611,0.04110018,0.04251763,0.02756222,0.04154324,0.04774630,0.04274090,0.03737306,0.04878003,0.07162676,0.08932101,0.11630721,0.14900342,0.16881676,0.17390035,0.17757192,0.17612792,0.18100069,0.18710807,0.17403991,0.19080960,0.21213027,0.25109106,0.27805591,0.32687465,0.33930335,0.36484558,0.38969339,0.39734012,0.39047082,0.37915162,0.38451151,0.37530860,0.35874169,0.36140769,0.32391283,0.29930486,0.27990690,0.25440355,0.21568175,0.17248773,0.14101184,0.13541568,0.10598318,0.08602571,0.08245805,0.08083250,0.07621572,0.08023527,0.07989763,0.07542794,0.08581403,0.09150768,0.08968942,0.09003050,0.07913123,0.07673700,0.05416617,0.06060850,0.05948578,0.05585633,0.05857258,0.05888582,0.05280364,0.06646141,0.07241170,0.08538078,0.09056692,0.09761923,0.10876032,0.12046269,0.14733598,0.15737483,0.17982426,0.21608551,0.23297214,0.25722475,0.28140000,0.28032096,0.29238056,0.28813235,0.29910444,0.29141630,0.25122497,0.23075656,0.21850787,0.20595688,0.19550749,0.20204081,0.20101246,0.19003115,0.19683033,0.19046582,0.19060636,0.17980819,0.15779927,0.12846605,0.11432167,0.09600022,0.08201002,0.07677392,0.06974095,0.06564856,0.06331308,0.06279161,0.05930929,0.06763015,0.07181908,0.06913252,0.07944714,0.08572937,0.10560715,0.11465697,0.11446877,0.15319830,0.16960901,0.18367406,0.22376164,0.22741044,0.27148349,0.28515985,0.30383919,0.35169714,0.35396454,0.34301151,0.33266996,0.33094584,0.31448748,0.30199924,0.27152492,0.25835562,0.22630500,0.20649942,0.16663348,0.16630904,0.15289303,0.14225064,0.13506582,0.12566802,0.14157085,0.14306375,0.16206038,0.17049952,0.18509031,0.18794244,0.21877112,0.24665361,0.28084875,0.30697680,0.32463216,0.34391010,0.36530760,0.37597350,0.36645646,0.37247162,0.38577398,0.36896727,0.34373513,0.31552120,0.29712254,0.27826908,0.26115568,0.23043951,0.20355458,0.18862275,0.17370838,0.14983048,0.15299058,0.15366182,0.15995971,0.14455350,0.14773118,0.15021504,0.14769261,0.14668416,0.13888974,0.13166345,0.13343876,0.11725273,0.12467071,0.12043516,0.12370116,0.13502399,0.12964383,0.16933196,0.17978660,0.19616215,0.24641956,0.27004995,0.30211786,0.32840566,0.36168449,0.39967950,0.40226723,0.43421826,0.45595020,0.43821472,0.44559777,0.45789347,0.46212684,0.46662229,0.47229221,0.46524800,0.46168961,0.43586562,0.43925625,0.40460732,0.38397556,0.35052432,0.29303788,0.24164093,0.20421567,0.17805664,0.15696741,0.14059778,0.13141666,0.12238758,0.11465472,0.11153944,0.12392567,0.13499529,0.13861797,0.14323504,0.13672608,0.14048969,0.14561591,0.14400247,0.16809883,0.16858518,0.17483412,0.17004212,0.18488391,0.18569644,0.18124084,0.20229376,0.17815690,0.19417968
0.04822710,0.05026258,0.04877253,0.05183629,0.05770516,0.06827827,0.07725232,0.06477175,0.06418230,0.04760676,0.04606479,0.04232141,0.02852813,0.02689030,0.02846897,0.02309922,0.02234574,0.02727677,0.02860121,0.02131410,0.02278567,0.02460128,0.02692390,0.04583790,0.04220722,0.06337845,0.06518327,0.07395939,0.07684934,0.06526984,0.07346791,0.05154940,0.04433556,0.05197554,0.03489411,0.03025714,0.04484211,0.03418624,0.04816722,0.05616564,0.06370306,0.06015943,0.05577520,0.06312471,0.06599945,0.05738766,0.04814336,0.04340356,0.03894195,0.03506050,0.02085475,0.03692721,0.01825160,0.01874942,0.02361327,0.03413396,0.01783516,0.02554229,0.02698133,0.01701304,0.02165816,0.01855343,0.01454403,0.02381617,0.01303515,0.02095228,0.02059786,0.01952520,0.02487167,0.02363750,0.04031274,0.02577175,0.03092789,0.02974439,0.04342162,0.04815279,0.04660828,0.06662964,0.07478853,0.07564401,0.08026519,0.08112533,0.09609455,0.11291429,0.13914697,0.15780451,0.17484238,0.19669837,0.24270288,0.26027310,0.28515017,0.31631941,0.35016309,0.36309301,0.38683394,0.40128724,0.43918099,0.46493164,0.47846918,0.47304382,0.47812107,0.43344501,0.41036761,0.36886529,0.32321196,0.25576023,0.21464675,0.17086514,0.13001702,0.09551101,0.08407543,0.05388599,0.07204892,0.04571950,0.05511733,0.05106570,0.05357991,0.05041217,0.05222018,0.04882158,0.04178103,0.04384710,0.04486507,0.04124566,0.03947705,0.03852792,0.05813705,0.05946659,0.07848066,0.09271843,0.10469199,0.13357636,0.16396941,0.16910994,0.18497967,0.19444113,0.21859364,0.21844497,0.19589680,0.19271637,0.19858988,0.19656132,0.15913065,0.14859862,0.14108534,0.12337143,0.11465803,0.10948003,0.09945396,0.10981763,0.10884305,0.12264478,0.14841336,0.16733798,0.18337771,0.19631045,0.20864396,0.19335113,0.17950186,0.13759304,0.10686612,0.09804030,0.06242185,0.06305568,0.03438281,0.03716597,0.03955533,0.02551339,0.01983798,0.02280410,0.02809711,0.04150770,0.04103689,0.03890914,0.03969680,0.04913283,0.06800693,0.07076270,0.08442716,0.10123202,0.11030711,0.13952407,0.15337671,0.17679986,0.19559184,0.19324296,0.22405599,0.22530772,0.23651823,0.22093630,0.20830209,0.21252950,0.19088127,0.20010746,0.15899709,0.14930473,0.14341988,0.13380054,0.11628466,0.13418041,0.13082390,0.16285233,0.17479644,0.18450939,0.22360975,0.24536307,0.28507802,0.32266451,0.36096059,0.37888070,0.41638347,0.44297251,0.44625660,0.48543723,0.48753152,0.50798035,0.49541612,0.49658283,0.47889865,0.44593527,0.42920535,0.37715916,0.34614319,0.30085406,0.29708727,0.24915190,0.21565744,0.18938230,0.20068446,0.18115877,0.19016433,0.19404531,0.20989099,0.22563132,0.23121372,0.23908123,0.23523997,0.23492946,0.22365346,0.21146212,0.18409412,0.15462683,0.13963914,0.12123972,0.10194239,0.09214282,0.09593781,0.10493630,0.11702862,0.14827166,0.17573489,0.20587538,0.26362884,0.29781186,0.34101948,0.38202311,0.37629315,0.41993342,0.41335188,0.40338830,0.39666447,0.38299601,0.36624533,0.34999122,0.34820880,0.32154463,0.32984831,0.32081294,0.30028018,0.29772123,0.27226794,0.22996937,0.18934265,0.14475873,0.11482946,0.08549858,0.07278949,0.05832170,0.04037068,0.05337479,0.03429697,0.04744605,0.03397943,0.03931655,0.04030785,0.04156623,0.04476488,0.03615320,0.05507390,0.04702933,0.05632294,0.06803078,0.06612219,0.06361189,0.07452409,0.07471749,0.08185941,0.07819357,0.07548222,0.08102760,0.08391362
0.04719009,0.06759683,0.06520173,0.07438109,0.08026183,0.09993284,0.09193436,0.09918590,0.07367076,0.08214623,0.07766826,0.06033190,0.05640910,0.03776592,0.04554432,0.03508131,0.02695462,0.02907096,0.04163196,0.02624533,0.03471012,0.03375239,0.04438268,0.04823707,0.05654821,0.08131169,0.09705257,0.11776884,0.10874130,0.10799582,0.09856743,0.10046465,0.07407303,0.06749923,0.07191793,0.05487938,0.07236935,0.08584536,0.08371905,0.10474013,0.09881142,0.11735997,0.12383376,0.12245562,0.11081850,0.10417958,0.09598907,0.07794839,0.07434990,0.05668978,0.05633879,0.04638319,0.05549308,0.05088019,0.04122305,0.03225830,0.04652439,0.04945422,0.04220954,0.03709829,0.04273201,0.04003861,0.04107492,0.03781046,0.04963401,0.02893311,0.04396268,0.04262802,0.03608363,0.04714343,0.05557864,0.04876818,0.05730001,0.06023380,0.06854055,0.09932422,0.10536403,0.11955207,0.11409875,0.11594106,0.12220657,0.10102674,0.11262708,0.11773005,0.11370146,0.13060820,0.15439971,0.16313478,0.18474456,0.20355276,0.23398474,0.25990395,0.31675025,0.33714074,0.37840020,0.44627964,0.49005530,0.50810489,0.55910770,0.58269374,0.60175819,0.57418397,0.55964785,0.51188212,0.43096366,0.37804647,0.30871423,0.25319180,0.19940178,0.15644195,0.11933929,0.10814081,0.09820545,0.08711788,0.07942251,0.07382834,0.07648586,0.07596320,0.08661355,0.07001862,0.08267179,0.07938012,0.07828503,0.08352594,0.07918355,0.09811493,0.11793626,0.13579035,0.13865955,0.16262827,0.19451364,0.22337628,0.25333742,0.27907509,0.31683790,0.31650642,0.33927766,0.33641759,0.36840271,0.34265330,0.33703405,0.31881469,0.31096516,0.30245616,0.27453598,0.25272808,0.24361311,0.21901694,0.21896366,0.19851336,0.19643141,0.22699746,0.23396211,0.25299823,0.27504719,0.27766503,0.28650425,0.25683025,0.24833188,0.22130875,0.19162924,0.15015885,0.12492590,0.11434538,0.09799846,0.08113415,0.08111075,0.06890053,0.07889453,0.06843251,0.08647028,0.07300053,0.07757584,0.07969535,0.08767310,0.08654460,0.09915664,0.10407828,0.10764381,0.10963573,0.11550871,0.13634106,0.13224510,0.16127201,0.16898036,0.16194724,0.18413655,0.17829342,0.17087581,0.18482142,0.17898729,0.18598637,0.17302568,0.16945400,0.16243290,0.15780128,0.16153796,0.17040328,0.17801682,0.19207798,0.20346913,0.24738249,0.28517107,0.29394629,0.34768080,0.39758990,0.45539507,0.50474340,0.51974242,0.55504802,0.59315840,0.64108808,0.66410798,0.67559797,0.65517668,0.67302827,0.64464086,0.61776617,0.61765271,0.59559747,0.54179675,0.49219436,0.43710172,0.41075099,0.37581200,0.32649417,0.29942974,0.28866160,0.29322060,0.28323069,0.31111650,0.32795969,0.35669795,0.39680700,0.40753072,0.37179695,0.41213738,0.38457284,0.37926302,0.36059971,0.31220999,0.28753512,0.25396748,0.22797755,0.19213208,0.17787919,0.18784333,0.18300199,0.19623698,0.22172626,0.26631221,0.29382296,0.36898671,0.39476262,0.46021392,0.52239634,0.56412892,0.60115115,0.60429292,0.59799830,0.62087487,0.58769796,0.58114136,0.55737923,0.53762214,0.52913934,0.49538252,0.52090769,0.50388051,0.45953891,0.43782760,0.38442230,0.33496483,0.27748996,0.23740801,0.20948828,0.17031622,0.14296382,0.12847477,0.11245963,0.11502485,0.11384960,0.11460888,0.11997522,0.10328397,0.12438250,0.12502448,0.11712733,0.12450942,0.11090815,0.11958236,0.11326476,0.11617727,0.12579673,0.13283522,0.13685373,0.13713004,0.12543090,0.13702977,0.12831292,0.12287178
0.01376596,0.00982833,0.01060992,0.00775031,0.00602658,0.00786937,0.00420819,0.00510528,-0.00023594,0.00961804,0.00170893,0.00117372,0.00966612,0.00391746,-0.00485502,-0.00544778,-0.00928532,0.00360856,0.00337403,-0.00242600,0.00513977,0.00559983,0.00649944,0.00757280,0.00531040,0.00418915,0.01642852,0.02090834,0.02337766,0.02301135,0.01317821,0.01481888,0.02817945,0.01338405,0.02624549,0.03247086,0.05722942,0.06584727,0.09152433,0.09882401,0.10434523,0.12156045,0.11572540,0.10716942,0.10920888,0.09785124,0.07963672,0.06583751,0.05930365,0.04285979,0.03790119,0.02415381,0.02223785,0.02968795,0.02451877,0.01804186,0.02322192,0.01739178,0.01271870,0.02529549,0.02442159,0.02300170,0.01506080,0.02735638,0.01342447,0.02251808,0.02860103,0.02156889,0.02274759,0.02754461,0.03532355,0.03372468,0.04773494,0.04888457,0.07184968,0.08037144,0.11132826,0.12569429,0.13574107,0.13878737,0.14563156,0.15309362,0.16881366,0.18568465,0.21171038,0.26050659,0.30024137,0.33108793,0.40155094,0.43702668,0.43982801,0.46153366,0.47042748,0.46046272,0.44961813,0.42010804,0.37500802,0.34253581,0.32069297,0.27324202,0.23906998,0.21775075,0.18927490,0.17325530,0.14400561,0.12541967,0.10431107,0.09995222,0.09824248,0.09218228,0.10775003,0.11250930,0.13525955,0.14552188,0.16762025,0.18553023,0.15890557,0.17252202,0.15622034,0.14752454,0.12051244,0.10370392,0.08072633,0.07742231,0.07334835,0.06098712,0.05070655,0.06108735,0.06407852,0.07052976,0.06793076,0.08518378,0.08028902,0.09673668,0.10632271,0.12926845,0.14897018,0.14945447,0.17163495,0.18597047,0.19498090,0.22528114,0.22794769,0.23298267,0.23523724,0.23281519,0.21921057,0.20086178,0.18879793,0.15980881,0.15476345,0.15602539,0.13505345,0.12434536,0.12890246,0.11488716,0.11758199,0.12303368,0.09022787,0.08773031,0.08016762,0.07318646,0.08311833,0.06133478,0.06814362,0.06047088,0.06299436,0.05887123,0.05282103,0.07576028,0.07092791,0.05886566,0.07754033,0.06985995,0.08451019,0.08576234,0.10466417,0.11925877,0.13244254,0.14675980,0.17816361,0.20981262,0.22904080,0.25382148,0.27407912,0.28910125,0.29570401,0.30418984,0.32104391,0.31433961,0.30242089,0.29631876,0.25739455,0.22986814,0.22859697,0.20734245,0.18069688,0.16752284,0.15067531,0.13850291,0.13183244,0.13348692,0.12620075,0.14341734,0.14380297,0.14686770,0.16908269,0.18036984,0.19872742,0.21462994,0.24709520,0.28140829,0.30749769,0.33922303,0.35218647,0.39001162,0.41700715,0.41727766,0.43687245,0.45471912,0.42902285,0.42740610,0.39584749,0.36750853,0.33121571,0.31440006,0.28525529,0.27438402,0.22346695,0.20596209,0.17713296,0.17803751,0.16919228,0.14571495,0.14861332,0.13686598,0.14463150,0.13182003,0.13055683,0.12878660,0.11165036,0.12462258,0.10940314,0.12696114,0.13342956,0.13014606,0.15827954,0.16921032,0.19382772,0.21457319,0.26563770,0.28701120,0.32527002,0.34386032,0.36601655,0.38082733,0.38055001,0.40018132,0.39425606,0.39783203,0.38137147,0.37511553,0.35529297,0.35177422,0.33474100,0.33106535,0.30359492,0.31509833,0.29481000,0.30207576,0.27479044,0.24629191,0.22890696,0.19462425,0.17285502,0.14575812,0.12261282,0.12505720,0.11511601,0.09000303,0.08619437,0.09418480,0.09994069,0.09675995,0.10023930,0.11510968,0.11585877,0.12625688,0.11340987,0.12557547,0.13747682,0.13492496,0.14007691,0.15171991,0.14985372,0.14857043,0.15985486,0.15029104,0.16097372,0.15902908,0.16889410
0.04539212,0.04742368,0.06573295,0.07067726,0.08363096,0.07303990,0.07842265,0.08852005,0.08628417,0.07161542,0.05955521,0.05091106,0.04777583,0.02339493,0.03318914,0.03585000,0.01442684,0.01682083,0.02329812,0.02183663,0.01935398,0.02870745,0.02928043,0.04053974,0.05072543,0.06896658,0.08048391,0.10293159,0.09880098,0.09317138,0.08129578,0.07534498,0.07200162,0.05666957,0.05513471,0.06264005,0.06884780,0.10207671,0.11013694,0.13335047,0.15056343,0.16412493,0.16048487,0.16681993,0.15433297,0.13286417,0.11776633,0.11050427,0.09123054,0.06215802,0.05186504,0.05964281,0.04574888,0.03856308,0.04070255,0.02783155,0.02538652,0.03246617,0.02951772,0.03647995,0.02908742,0.02889864,0.02020261,0.02725253,0.02854125,0.04591079,0.03162613,0.03535155,0.03108354,0.04856564,0.03683598,0.03712538,0.04592784,0.05571745,0.08680867,0.09149934,0.11562627,0.14489168,0.15784135,0.14714529,0.14444539,0.14824818,0.14677310,0.13652158,0.14151007,0.15511154,0.15305609,0.19772566,0.20899808,0.22099419,0.24283476,0.24476103,0.25533168,0.25688233,0.26585988,0.28980168,0.29235535,0.30868793,0.32273413,0.35595705,0.35669425,0.36283267,0.37493740,0.36562493,0.33766920,0.31286124,0.25495693,0.21116449,0.16546157,0.14306751,0.12262605,0.09854789,0.11298654,0.09439776,0.08800102,0.09523401,0.10024508,0.09995752,0.09012495,0.09353159,0.08179856,0.07247352,0.07807894,0.07993874,0.07668869,0.07225999,0.08540576,0.09804039,0.10921066,0.13710440,0.16054406,0.19294374,0.22652312,0.25437653,0.29242437,0.32038617,0.35600171,0.34821532,0.36302131,0.37540759,0.35721332,0.37698035,0.35785130,0.35853158,0.34798412,0.32623736,0.30857535,0.26899088,0.23075897,0.20228071,0.18580597,0.15473479,0.14299543,0.11705018,0.09392181,0.09057206,0.07687145,0.08110461,0.08027389,0.07538313,0.06342817,0.06219797,0.05586324,0.05956672,0.04725655,0.04932723,0.04752233,0.05486004,0.04088959,0.05216267,0.04863242,0.04856366,0.05590119,0.05022619,0.06801493,0.06355709,0.06964979,0.07141266,0.08360452,0.09727814,0.10914409,0.11653906,0.13516588,0.13290802,0.15784209,0.16430144,0.17022824,0.17246914,0.18260060,0.17839954,0.17827128,0.16482267,0.17281341,0.15880636,0.16762861,0.15142035,0.14973986,0.14034764,0.14050097,0.16697743,0.16868137,0.20079415,0.21240115,0.26892095,0.29008162,0.31829996,0.35218737,0.38528236,0.40887890,0.42597703,0.46314228,0.47713305,0.45845130,0.45528832,0.44007791,0.43789172,0.40704160,0.38836232,0.36873704,0.34346915,0.30930301,0.29797119,0.26330691,0.25449718,0.24102286,0.21692192,0.21799077,0.20547866,0.22086072,0.23021783,0.24771833,0.26643102,0.28791471,0.31744408,0.33423414,0.36352335,0.37843094,0.36379377,0.33257473,0.31677411,0.29020697,0.26364701,0.23646706,0.20926965,0.18157353,0.16461724,0.14600774,0.14109670,0.13818783,0.12851838,0.15513971,0.16964993,0.19602033,0.22182747,0.25362804,0.31208900,0.33708394,0.35980053,0.40791987,0.44036177,0.46226823,0.47613881,0.47199672,0.45530664,0.43724855,0.38773071,0.37120592,0.34652917,0.31853085,0.31111549,0.28776034,0.26328900,0.24372966,0.21004566,0.17730705,0.14966780,0.12956556,0.10840861,0.08886423,0.09129036,0.09345941,0.08213205,0.07877309,0.07991816,0.08681671,0.08345989,0.06816445,0.08715627,0.09443660,0.08980386,0.10243919,0.09811300,0.10003240,0.09823988,0.10640911,0.11497403,0.09986018,0.09488276,0.12308361,0.11604330,0.10926371
-0.01281141,-0.02556672,-0.03415198,-0.02876826,-0.02716449,-0.02698227,-0.03294325,-0.02841361,-0.02239566,-0.02658205,-0.03032907,-0.03215163,-0.03110018,-0.03013043,-0.03479329,-0.02674816,-0.03314971,-0.03333012,-0.04116303,-0.03170617,-0.03729198,-0.03100487,-0.02243053,-0.04123000,-0.02481972,-0.02698146,-0.02291430,-0.02284251,-0.02839366,-0.01490149,-0.01836033,-0.02800659,-0.02246501,-0.01549611,-0.00906831,0.00030424,0.02013486,0.02831823,0.06301965,0.08133750,0.09553757,0.12310798,0.10605077,0.11655485,0.10533105,0.08591262,0.06325886,0.04509591,0.02623650,0.00591482,-0.00081550,-0.00202325,-0.02166896,-0.02205787,-0.02565636,-0.03231049,-0.01869397,-0.03381371,-0.03491294,-0.03559444,-0.03300876,-0.03389058,-0.03517497,-0.03737001,-0.02645775,-0.02036434,-0.02801796,-0.01821835,-0.02128929,-0.03019523,-0.01438636,-0.01504397,0.00186794,0.00908663,0.03262999,0.04484866,0.06440506,0.08431287,0.10512061,0.11125101,0.10015686,0.09060274,0.08617411,0.08140931,0.09061315,0.11161438,0.12862418,0.15977597,0.18620664,0.21187432,0.23285962,0.27437942,0.29812394,0.33083963,0.35422266,0.37820359,0.39680745,0.37134117,0.37988136,0.37243422,0.32037298,0.30272634,0.26497088,0.22816415,0.16259452,0.13431732,0.09099839,0.06725386,0.05093028,0.03418696,0.02951935,0.02742356,0.03864665,0.03494007,0.05158735,0.05495969,0.04946351,0.05516407,0.04180735,0.03279310,0.02845257,0.02518025,0.01900446,0.00840443,-0.00084529,0.00267800,-0.00076406,0.00402747,-0.01039882,0.00881146,0.01235427,0.02291031,0.02776017,0.04496672,0.06163716,0.07898957,0.09769384,0.12281399,0.13167400,0.16210644,0.18664732,0.20057542,0.22352788,0.22197929,0.23503438,0.21229966,0.21192646,0.20554476,0.18396915,0.16751822,0.17288632,0.15806889,0.18590905,0.18760912,0.21174260,0.22262144,0.21885510,0.19193184,0.18516412,0.15014555,0.12135955,0.09034982,0.05406179,0.04315263,0.01017158,0.00647429,0.00367262,-0.00021010,-0.01044353,0.00424732,0.00751656,0.00600057,-0.00292614,-0.00212794,0.00046044,0.01553880,0.01665465,0.02338815,0.02586361,0.03829817,0.05417237,0.06110414,0.07107767,0.08703769,0.09173081,0.11476275,0.10958559,0.12235607,0.12516454,0.12369957,0.13250825,0.10631074,0.10426824,0.09113558,0.08327855,0.07469238,0.06636184,0.05896629,0.04540323,0.05730549,0.05459195,0.04258732,0.05824066,0.05802484,0.06547646,0.08318060,0.09651914,0.12043315,0.15841721,0.18678836,0.22495657,0.27013691,0.30749637,0.35510537,0.39200534,0.41464914,0.44584320,0.47805001,0.49525140,0.48500156,0.46937595,0.45038798,0.42540541,0.37985779,0.32806539,0.28664523,0.24251418,0.19943064,0.17203245,0.13529685,0.11326669,0.10619751,0.09467623,0.08060328,0.08392701,0.07671469,0.06999279,0.06831745,0.07045959,0.04284443,0.05347227,0.05038633,0.04724683,0.03945844,0.04458808,0.05127154,0.07045817,0.08693984,0.09843451,0.14788334,0.18019870,0.23314802,0.28802375,0.32396873,0.36088911,0.42926826,0.47128651,0.45353606,0.50340212,0.49144350,0.48809398,0.48922110,0.46072349,0.47832164,0.45960396,0.45836365,0.46124388,0.45866178,0.47100275,0.44746368,0.42537500,0.37939139,0.31451411,0.27648339,0.20274071,0.15489164,0.12372615,0.07138447,0.05437440,0.04095368,0.03148278,0.01361130,0.02655686,0.01886240,0.02768134,0.02623393,0.02178642,0.03478030,0.03476816,0.03336615,0.02676356,0.04217749,0.03484738,0.03614970,0.04776327,0.04755617,0.04028569,0.03589151,0.04746273,0.04601250,0.04647178
0.07017606,0.07564661,0.07887522,0.07050815,0.07714597,0.08842552,0.09346435,0.08710345,0.08502507,0.09052658,0.07439231,0.05437197,0.06714142,0.04934377,0.04117107,0.03021125,0.03705867,0.03136364,0.03275897,0.04010467,0.03925693,0.04110997,0.04515630,0.05828536,0.06863578,0.07929031,0.07961731,0.10145170,0.10799643,0.10465504,0.10474453,0.08966919,0.07252173,0.06250365,0.06630620,0.04886627,0.04837073,0.06464616,0.06269467,0.06869034,0.06818526,0.07443868,0.07563489,0.07473312,0.06513769,0.07322787,0.06209821,0.05630578,0.05942397,0.05911003,0.06397483,0.05848523,0.06093268,0.04444713,0.06412844,0.06469966,0.05668743,0.04173271,0.05759552,0.05904070,0.06011225,0.05437808,0.05803845,0.06384763,0.06222398,0.06249192,0.06311953,0.07345674,0.06745458,0.06834569,0.06292638,0.06555400,0.07560519,0.08080873,0.08446302,0.07746135,0.08762091,0.10528156,0.10521530,0.14222599,0.13446525,0.13908164,0.18066928,0.19225517,0.22124154,0.26098725,0.30258015,0.32990707,0.37040944,0.39480767,0.42137777,0.43227962,0.47590003,0.46472560,0.48711737,0.48399837,0.47740794,0.49102275,0.52024706,0.51487071,0.52230550,0.51355969,0.48652826,0.46292288,0.40939671,0.35730725,0.32412270,0.24006749,0.20348991,0.17314329,0.14747612,0.14316708,0.12935361,0.11828776,0.11870738,0.11083003,0.11858170,0.11430383,0.11748420,0.09889249,0.10867793,0.10834942,0.10375562,0.10640819,0.11457724,0.11137820,0.12998858,0.14443423,0.15190608,0.18786652,0.19485680,0.22200109,0.24902154,0.26459812,0.29001525,0.30545699,0.31496340,0.31898297,0.30970475,0.29313856,0.27635948,0.28253478,0.24854865,0.22934352,0.20193388,0.19623061,0.18044622,0.18097819,0.17319618,0.16308113,0.16748011,0.17309506,0.18139185,0.19503994,0.21036341,0.22758271,0.22290503,0.22123672,0.23179397,0.20652975,0.18125939,0.16372216,0.14571648,0.14220458,0.13174469,0.13011746,0.10748714,0.12481891,0.12032695,0.12251878,0.12777061,0.12737172,0.12411827,0.13996056,0.13506775,0.16574039,0.17811682,0.19625112,0.23032958,0.23787182,0.26897041,0.29676554,0.33453242,0.36512814,0.40895283,0.41924343,0.44217058,0.46646825,0.47189067,0.47011120,0.47944311,0.45033768,0.43011829,0.40245262,0.38315383,0.35485307,0.32373405,0.30590165,0.29831067,0.28253573,0.28684210,0.29209845,0.31014516,0.34069262,0.35794505,0.39883222,0.42411502,0.46909363,0.48225046,0.49220215,0.53373152,0.55133511,0.57412879,0.56715632,0.56677334,0.57612786,0.55242005,0.54444445,0.53599676,0.50032093,0.47667456,0.44969737,0.41149500,0.38222836,0.36291306,0.32259694,0.33699201,0.29052822,0.29590780,0.30486746,0.31529534,0.32875765,0.36476784,0.38325416,0.38527724,0.41577470,0.40627276,0.41373917,0.40730966,0.39096477,0.36087778,0.32782305,0.28940957,0.26756818,0.25293491,0.23746038,0.21859138,0.22135370,0.22307874,0.24479939,0.25987634,0.27854760,0.31147886,0.34757037,0.38282548,0.42065125,0.45749671,0.47529303,0.48208733,0.50186774,0.48015453,0.48071444,0.46233295,0.44252192,0.42634530,0.41323168,0.39550270,0.37870297,0.38344296,0.35370799,0.33596454,0.32772347,0.30640628,0.26453233,0.25122714,0.22498527,0.20467714,0.19560810,0.18551409,0.18962575,0.18498070,0.21210408,0.19956375,0.19207815,0.21061317,0.20896387,0.21389516,0.21888865,0.21849395,0.23770218,0.23503102,0.23623176,0.26070486,0.25701889,0.26469892,0.26742634,0.25835106,0.28949087,0.26730443,0.28461942,0.28005795
0.03861647,0.03920773,0.03849889,0.03523190,0.04132907,0.03607141,0.02901650,0.03797705,0.03337416,0.02504469,0.02935286,0.02905337,0.02407723,0.01947541,0.01652445,0.01545192,0.01885233,0.01366364,0.01757272,0.02092323,0.00886541,0.01242591,0.01754838,0.02069630,0.03823509,0.03597999,0.04252615,0.05665655,0.04870202,0.05339603,0.04294159,0.03890592,0.03391453,0.04437228,0.05078941,0.05094625,0.06179125,0.07319556,0.10830398,0.12031838,0.13445075,0.15528196,0.15018575,0.16700676,0.14622921,0.12782804,0.11101066,0.09563592,0.08294340,0.08073264,0.04253571,0.03895594,0.02907880,0.02849461,0.02012379,0.02441380,0.03204983,0.02500208,0.02321418,0.01686026,0.02474695,0.02476401,0.02385177,0.01841934,0.02262403,0.02722712,0.01547162,0.02226799,0.02734017,0.02225896,0.03042456,0.04590230,0.04367762,0.05385550,0.08265567,0.09034152,0.12789604,0.15435158,0.15589393,0.17497233,0.16764409,0.17727589,0.18093046,0.19345007,0.21129445,0.23113819,0.28583790,0.32268088,0.35571591,0.39833986,0.42271308,0.47323609,0.46872295,0.45570252,0.46481579,0.42610575,0.42613601,0.39395420,0.37552814,0.35265841,0.33706652,0.29661842,0.26700030,0.26870879,0.22241763,0.20183468,0.16634946,0.14974453,0.13122414,0.13179359,0.10837957,0.11416801,0.12253498,0.12285450,0.14475838,0.15153249,0.16126548,0.15259742,0.16090712,0.13318494,0.11752215,0.11337189,0.08939531,0.07583057,0.07324022,0.06004042,0.06814828,0.06524676,0.07018036,0.07893450,0.10294925,0.11871769,0.13566641,0.16051275,0.16913269,0.17739651,0.19840866,0.21995620,0.24966778,0.25430598,0.27701472,0.28750001,0.28812573,0.29134166,0.29623313,0.28578122,0.25940831,0.25736229,0.22410806,0.19358930,0.17925382,0.15362458,0.15073340,0.14451890,0.13594761,0.11981294,0.12079922,0.12894627,0.09994989,0.08620971,0.09173314,0.07231485,0.06175817,0.06799436,0.04867523,0.05009330,0.05688274,0.04986385,0.05084214,0.04813101,0.06519334,0.06152513,0.05401559,0.06163361,0.07174196,0.08246712,0.08943008,0.09707929,0.10744797,0.14065356,0.14619993,0.16836499,0.20434129,0.22227615,0.23822616,0.26387744,0.27474997,0.29398606,0.29040029,0.31013009,0.29514696,0.28221931,0.27183501,0.25013188,0.22655414,0.20045867,0.19057192,0.16828001,0.15534438,0.15208414,0.14986952,0.15792497,0.17086621,0.17887469,0.18571542,0.21260614,0.22049949,0.25134349,0.27003881,0.30044114,0.32775591,0.35939015,0.37360892,0.38460905,0.41820094,0.42054841,0.44474603,0.45785184,0.42837402,0.44470082,0.44455427,0.43486120,0.41587256,0.37827965,0.33624523,0.33009945,0.29398349,0.25347431,0.25089572,0.22793213,0.21467495,0.21831267,0.21765754,0.21488530,0.20901013,0.21632517,0.22268218,0.21316278,0.21078452,0.21686958,0.18478305,0.16676361,0.15242243,0.14067614,0.13930727,0.14577138,0.14207787,0.16091984,0.17048110,0.19129808,0.22686671,0.25271120,0.28922606,0.32283593,0.34068524,0.36652605,0.41223793,0.43414464,0.45332944,0.43997640,0.46357325,0.45662199,0.44009735,0.41611213,0.40426043,0.39728138,0.37092196,0.37988034,0.34502107,0.32776203,0.31283263,0.30238444,0.27543756,0.23264415,0.19960755,0.15423271,0.13790461,0.11480268,0.10174095,0.08979485,0.09470413,0.08480356,0.08891569,0.09384562,0.08404184,0.09226550,0.10103096,0.09745423,0.10674762,0.11661339,0.11197405,0.11772208,0.11604410,0.13823637,0.11339547,0.13568300,0.14675262,0.14398451,0.14209368,0.13830126,0.15196826
-0.00854689,-0.01158165,0.00453012,0.02048126,0.01327979,0.01442782,0.01557250,0.01254362,0.00625952,0.00577578,0.00269163,-0.00145801,-0.02420602,-0.01414931,-0.02446108,-0.02282670,-0.02776660,-0.01956551,-0.03133810,-0.02269705,-0.02213119,-0.02427643,-0.01185660,-0.01762665,-0.00340211,0.00359361,0.00848404,0.03039966,0.03465129,0.01829824,0.02577898,0.01133485,0.00127383,-0.00752822,-0.00550779,-0.00276950,0.00190880,-0.01077635,-0.00152356,0.00847556,0.01965124,0.02312904,0.02141082,0.02299457,0.00647877,0.01369019,0.01194010,-0.00002127,-0.00506934,-0.00581982,-0.01810840,-0.01399685,-0.01210457,-0.02157015,-0.02792311,-0.02632195,-0.01635172,-0.01778235,-0.01866410,-0.02742597,-0.02022268,-0.02063628,-0.02343723,-0.02517589,-0.02349170,-0.02224912,-0.01719146,-0.02313273,-0.01963805,-0.02196937,-0.02378021,-0.01413983,-0.01505619,-0.01162717,0.00234269,0.01808299,0.01206629,0.02683001,0.04064080,0.03469484,0.06600204,0.08090271,0.08941404,0.13043603,0.16618273,0.21664753,0.26688223,0.33314947,0.38676433,0.43313828,0.48931824,0.50612138,0.49704130,0.50626654,0.50083461,0.46953546,0.46210560,0.41565760,0.39377456,0.35470895,0.32836515,0.31963786,0.28872896,0.25630655,0.22209183,0.20143323,0.16784878,0.12898044,0.12010084,0.11363922,0.12739105,0.15603159,0.17345924,0.21425093,0.22970352,0.26166205,0.26625438,0.25159717,0.24140041,0.20816611,0.17841497,0.14508832,0.09939571,0.07541040,0.04716074,0.04924003,0.02596956,0.03513542,0.04015329,0.06777842,0.07924947,0.10617764,0.10931053,0.13619959,0.13715855,0.17645240,0.17198477,0.19030309,0.17640916,0.17759624,0.15246767,0.16029848,0.13899820,0.13673888,0.11493340,0.10336196,0.09684009,0.07214156,0.05839860,0.05452041,0.04234653,0.03859199,0.02286675,0.01249554,0.02190576,0.00803909,0.01184592,0.00884279,0.00291729,-0.00323956,-0.00232145,-0.00619141,-0.00836538,-0.00347122,-0.00616304,-0.00261869,0.00319475,-0.00116062,-0.00431350,-0.00663423,-0.00184838,-0.00681781,-0.00133254,0.00130728,0.00564561,-0.00263306,0.01631589,0.01643776,0.01558934,0.03002158,0.04325713,0.04182622,0.04624747,0.05503102,0.06562130,0.08005428,0.07385090,0.07987632,0.08796834,0.09652531,0.07905611,0.06797926,0.07158161,0.06438711,0.06233573,0.06327883,0.07595215,0.05977998,0.06931778,0.08330805,0.10143728,0.10568654,0.13344827,0.16683529,0.19013686,0.20741001,0.25389105,0.30028599,0.31845802,0.36512930,0.42766593,0.45070355,0.50090546,0.53954187,0.56209018,0.61107008,0.61524388,0.65776996,0.63323030,0.66634979,0.65372396,0.64335024,0.60063216,0.57465689,0.51288404,0.46702588,0.42628570,0.38112004,0.34593411,0.30239698,0.29721786,0.27754204,0.26028387,0.26349063,0.25710638,0.26923351,0.24804129,0.24195887,0.22422731,0.20899814,0.18262619,0.17962392,0.15474386,0.14822367,0.13029995,0.15296984,0.15725232,0.19824702,0.22691847,0.26242551,0.30739612,0.36351531,0.39033207,0.41959521,0.44852046,0.48011714,0.47371148,0.46827137,0.45887091,0.44011772,0.39277047,0.35636498,0.30989536,0.28202827,0.24119897,0.20414612,0.17849567,0.12651955,0.12563417,0.09896805,0.09939458,0.08210924,0.07854732,0.07154122,0.05534717,0.05338297,0.03369249,0.02930942,0.02934330,0.02312635,0.02671038,0.02164125,0.02726296,0.02911636,0.02822811,0.02609329,0.02812160,0.02951296,0.02112547,0.02808884,0.03214265,0.02788194,0.04021794,0.02938756,0.04244345,0.03565588,0.03638677,0.03847105,0.03688994,0.04735750,0.05876567
0.07131269,0.06998425,0.07672999,0.08341615,0.08341309,0.09442071,0.11142184,0.09255230,0.09949867,0.09030263,0.07113122,0.07028924,0.06539843,0.05180486,0.04788028,0.05208487,0.04308773,0.03672014,0.04582143,0.04582093,0.03175753,0.04521791,0.05745537,0.06200741,0.07102397,0.07705057,0.09103818,0.10830530,0.11901159,0.12423320,0.10902098,0.09407824,0.08582774,0.08730830,0.09019759,0.11041967,0.12664908,0.15889890,0.19391273,0.22811135,0.24026898,0.27172364,0.26636026,0.28302570,0.27046800,0.22791034,0.21729176,0.16737618,0.14068511,0.11106821,0.08146504,0.07778572,0.07016311,0.05832460,0.04464387,0.03622393,0.05865647,0.04158036,0.04074371,0.04570992,0.04159208,0.03870290,0.04631646,0.04689742,0.04303523,0.03890489,0.04345893,0.04141388,0.05397023,0.05454664,0.05058390,0.05522880,0.06107453,0.09367388,0.11617103,0.14824959,0.19204951,0.21114737,0.24624206,0.23045198,0.20768170,0.19147544,0.16273330,0.15431281,0.14386865,0.13853041,0.13996162,0.14260056,0.16124485,0.17508317,0.17961109,0.17967016,0.20762362,0.22666109,0.24351258,0.26036332,0.28946299,0.31855965,0.35307597,0.38596915,0.40995194,0.41079644,0.40472381,0.39223885,0.35640986,0.29915569,0.28245678,0.21402993,0.17982043,0.14702008,0.11877738,0.08441039,0.07768106,0.07467334,0.07001655,0.06809865,0.06762928,0.06618936,0.05802386,0.05843642,0.06023870,0.05825617,0.05684106,0.06029430,0.07079752,0.08999646,0.08124628,0.09500093,0.11281581,0.14047590,0.18226978,0.19290769,0.23499323,0.26804926,0.30531378,0.34559653,0.37860771,0.41641361,0.42165128,0.45241374,0.48312103,0.49101920,0.49762611,0.50235472,0.49779716,0.47492528,0.44795722,0.41080505,0.36703370,0.31994438,0.29412532,0.25107001,0.21893803,0.20419685,0.19022994,0.15525026,0.16674796,0.14642737,0.14297250,0.12674509,0.11374943,0.10027788,0.07468269,0.07196346,0.06813080,0.05981348,0.05850145,0.05609969,0.06024076,0.05744263,0.05716723,0.05719312,0.05684118,0.05228986,0.05795212,0.07023270,0.07055818,0.08615502,0.08908726,0.09347351,0.09732018,0.11827456,0.12660619,0.13794938,0.15482212,0.14085366,0.16407113,0.17942080,0.16765021,0.17246396,0.15934532,0.16849021,0.16323767,0.15920109,0.14985378,0.15225915,0.14321459,0.14237889,0.14176165,0.15141673,0.16923446,0.18796997,0.21518612,0.24818691,0.25711226,0.31352384,0.34682135,0.37165418,0.38356979,0.43414545,0.44822226,0.47432780,0.46201391,0.47298912,0.45999468,0.42409860,0.42975101,0.40477775,0.39942849,0.35874466,0.33202139,0.28918322,0.27148626,0.23839481,0.24216975,0.21919447,0.20419509,0.20759256,0.20034001,0.21329051,0.23276108,0.25483673,0.27873564,0.30884617,0.32479213,0.34477078,0.34743307,0.34828410,0.35503704,0.33184779,0.30656412,0.27821368,0.23139336,0.20452789,0.18774448,0.16820482,0.13537031,0.12457303,0.14261444,0.13729402,0.15701149,0.17076150,0.20528806,0.23250885,0.27400476,0.32121773,0.38979436,0.43252924,0.50806765,0.54813299,0.58501629,0.60433244,0.62974097,0.62324113,0.59744782,0.59995571,0.58187296,0.53077523,0.53006074,0.50917291,0.47821829,0.43667534,0.40100161,0.34383155,0.30796780,0.23668727,0.19197979,0.15852184,0.13424703,0.11374705,0.09634221,0.09673205,0.08480894,0.08369271,0.09199407,0.07966422,0.09420994,0.09680502,0.08976951,0.09871260,0.09048504,0.10112621,0.10578722,0.10763813,0.10734111,0.10595320,0.11586702,0.10996667,0.10406941,0.11425465,0.10197181
0.03475486,0.02617691,0.03664350,0.03840786,0.05490889,0.05553225,0.05456899,0.06773255,0.05228938,0.04331059,0.04076938,0.03293178,0.02868631,0.02412469,0.01855277,0.01740002,0.01386033,0.02311765,0.01464703,0.01582788,0.01216164,0.01863196,0.02323377,0.03080660,0.04325438,0.04203913,0.06213614,0.06955704,0.06538191,0.06431422,0.06208442,0.05324867,0.04417123,0.04514514,0.05111409,0.04559953,0.08349666,0.07385307,0.10175338,0.12346053,0.12195947,0.15326136,0.16219846,0.14875848,0.13641849,0.13430386,0.10536776,0.08811681,0.07634142,0.04994996,0.04719820,0.03220736,0.03110796,0.02678459,0.02329830,0.02011318,0.01832573,0.02466527,0.02294062,0.01786124,0.01175768,0.02950401,0.01646826,0.02544311,0.03365866,0.01798624,0.03449311,0.03042607,0.02931296,0.03198914,0.01824140,0.03533173,0.04921987,0.04653583,0.07064392,0.09166505,0.11295769,0.14307776,0.14583704,0.14886441,0.14124471,0.14621356,0.15297664,0.14405907,0.16098609,0.18420422,0.21041180,0.24657884,0.28199077,0.32032788,0.33906575,0.35930420,0.38973242,0.38059772,0.37373560,0.37857184,0.37369023,0.38176681,0.35264295,0.35417498,0.33365955,0.33807626,0.30421956,0.27929812,0.25522854,0.22414723,0.18743048,0.15156116,0.14210924,0.11931060,0.12661626,0.13631402,0.14426293,0.15910784,0.16644774,0.17783061,0.18398315,0.16704409,0.16395402,0.14512061,0.12258564,0.11516040,0.08692267,0.07479803,0.07431839,0.07713460,0.06765075,0.06508811,0.09667025,0.09606425,0.12289323,0.14582763,0.15430916,0.19814281,0.21614856,0.24013838,0.24670075,0.27291555,0.27873670,0.29621573,0.30796523,0.31210029,0.31643304,0.30987888,0.29766501,0.27180893,0.24997939,0.23759912,0.21370568,0.17197090,0.15107640,0.14484434,0.11893017,0.11640235,0.09219980,0.08566945,0.09156332,0.07099276,0.06301958,0.07071883,0.05730073,0.05160862,0.05213883,0.04270821,0.04913577,0.03775928,0.03072678,0.03943296,0.04540285,0.04207910,0.04596463,0.04391273,0.04283927,0.05242020,0.04851913,0.04186695,0.05805510,0.06483521,0.07094288,0.07243667,0.07547729,0.08619886,0.10184871,0.10599577,0.12095075,0.11620024,0.13363249,0.13435991,0.14753515,0.13737448,0.12915262,0.13250326,0.12717685,0.12007462,0.11534806,0.11923316,0.10039629,0.11316492,0.11418205,0.13120976,0.13665255,0.14910767,0.16854538,0.19274720,0.22657366,0.24990389,0.27458701,0.31356657,0.33008467,0.38701705,0.37756560,0.40350665,0.43899813,0.47060145,0.47717202,0.49625541,0.48309028,0.50125243,0.49164776,0.47512246,0.47552231,0.45019958,0.43491806,0.38708246,0.37314067,0.32061792,0.31411335,0.27765823,0.26543850,0.25121473,0.24134995,0.24929362,0.25570620,0.26510778,0.25202430,0.28171617,0.25744131,0.25188346,0.24922408,0.23117165,0.20018482,0.19360705,0.18869679,0.15201166,0.15316228,0.16134157,0.15776777,0.16460126,0.18945614,0.20595147,0.23271418,0.25400452,0.31142709,0.33382075,0.36802960,0.40499840,0.42693365,0.44515473,0.48327035,0.47349553,0.47149620,0.46260929,0.42661045,0.42549905,0.39638954,0.35879741,0.32498858,0.31154976,0.30000897,0.27442220,0.25646746,0.24461679,0.22565344,0.17512247,0.15807889,0.12833555,0.09053558,0.09298434,0.08237550,0.06626361,0.05833191,0.07154960,0.06221225,0.05850079,0.06265440,0.06005681,0.06005073,0.06530043,0.05815797,0.06450922,0.07228890,0.06836890,0.07551167,0.07460368,0.07967130,0.07959259,0.07593123,0.07798790,0.07600612,0.08661629,0.08016900
0.04014544,0.03207401,0.03146057,0.03232613,0.03464184,0.02634820,0.02799869,0.02682842,0.02629646,0.03136875,0.02189650,0.02233072,0.02775973,0.02852796,0.01360066,0.01778868,0.01763826,0.02489193,0.02036274,0.01842036,0.02255761,0.02450407,0.02493082,0.03353197,0.02808902,0.03325349,0.03428653,0.04187649,0.04449093,0.02812149,0.04263523,0.04488238,0.04055912,0.04962095,0.05206387,0.06989054,0.08363368,0.10004253,0.13124612,0.14017741,0.14599188,0.16867664,0.16774680,0.14907335,0.15538676,0.13372753,0.11138017,0.09238207,0.07585074,0.07821545,0.05588452,0.05207840,0.04495433,0.04784427,0.04269935,0.05158645,0.03729019,0.04825343,0.04690884,0.03902745,0.03798300,0.03970773,0.04103167,0.04282877,0.04307638,0.04234796,0.04593788,0.04772692,0.05821800,0.04596142,0.06676444,0.07441135,0.08423874,0.09234074,0.11219823,0.12605404,0.14953579,0.16707304,0.17413066,0.17701009,0.19134401,0.19978863,0.21611318,0.24120100,0.25018156,0.28663715,0.34012293,0.37718536,0.42114419,0.45433886,0.47164850,0.46553213,0.48331119,0.48610775,0.45063415,0.42969623,0.41903682,0.38733659,0.37615898,0.34497634,0.31404958,0.29497097,0.25405029,0.22751426,0.18568612,0.17935357,0.15014946,0.12686695,0.12280798,0.10772139,0.11722982,0.11943583,0.11872026,0.13022223,0.14338654,0.14209807,0.13998910,0.13686357,0.13473357,0.12635072,0.10768598,0.10708156,0.09297987,0.09416209,0.09403277,0.07679593,0.09850691,0.09904789,0.10614797,0.11877991,0.13365965,0.12896689,0.15649674,0.16305730,0.18432309,0.18928806,0.20562413,0.23602600,0.25046392,0.26201833,0.28528881,0.30309080,0.31297143,0.30997356,0.29868585,0.28289774,0.27236095,0.26735096,0.24887996,0.24003417,0.21562484,0.21654834,0.20412369,0.20490597,0.20276257,0.20663939,0.19956645,0.18845637,0.17670739,0.15931337,0.14432464,0.12723150,0.11371594,0.10317543,0.10269006,0.09698413,0.10345496,0.10223358,0.09969571,0.09839037,0.10309136,0.11243949,0.12630014,0.12454456,0.13232060,0.15936506,0.16112235,0.17094713,0.21335179,0.23630107,0.27176179,0.29876361,0.33128659,0.35141540,0.37718962,0.41382576,0.40543405,0.41899932,0.41434470,0.41754914,0.40429811,0.37483502,0.33724862,0.32078191,0.30841881,0.26121353,0.24079237,0.20692599,0.19616684,0.20909866,0.18709071,0.18763061,0.18678110,0.20615998,0.21452221,0.21216678,0.24498417,0.26858467,0.26449187,0.30739627,0.34464163,0.35515562,0.37797601,0.41035204,0.43420165,0.42406083,0.43378447,0.45608303,0.43965768,0.44442552,0.41953088,0.39064894,0.39302959,0.35525244,0.32646293,0.29094474,0.26056369,0.25383841,0.22954508,0.21588347,0.21954243,0.22308042,0.21268463,0.21944863,0.22700598,0.21046086,0.20868057,0.20523318,0.19543083,0.18873107,0.19385063,0.16744035,0.15398137,0.17249333,0.18083357,0.19334908,0.18828539,0.21601555,0.22971394,0.26503797,0.27368121,0.33074223,0.35801103,0.38154425,0.42152137,0.42493693,0.46446305,0.47328279,0.48837156,0.47662967,0.48308207,0.48196961,0.46537656,0.46842806,0.45419365,0.45763401,0.44415799,0.43783488,0.42468782,0.41928504,0.36408615,0.32540802,0.30067707,0.26001856,0.22120077,0.19391754,0.18792061,0.15626168,0.15676221,0.14726377,0.14757772,0.16419996,0.15922423,0.16421581,0.16548579,0.16778880,0.17884588,0.18198190,0.19368789,0.19720050,0.19620909,0.20448770,0.21799165,0.22182348,0.22139987,0.24230473,0.22634282,0.22550906,0.24366411,0.22762127,0.23516119
0.04973801,0.04406123,0.04110089,0.03566644,0.03945923,0.04041931,0.02661453,0.02703190,0.03334450,0.02365047,0.03027931,0.03322535,0.02486245,0.03094542,0.02217271,0.02231452,0.01717468,0.02601964,0.03540710,0.02273010,0.02834166,0.02300922,0.02682061,0.02471789,0.03214024,0.04168589,0.03980700,0.04257361,0.04297782,0.05027094,0.04900660,0.03748492,0.03771564,0.04200167,0.05576973,0.05921191,0.06688887,0.07869319,0.08615884,0.09934639,0.12504884,0.11950130,0.12471383,0.12052206,0.12469320,0.10431166,0.09647647,0.08817050,0.06093378,0.05844744,0.05673599,0.05036785,0.05248673,0.04125755,0.04454710,0.04020261,0.04537162,0.05142785,0.04703643,0.05634735,0.04026192,0.04990464,0.04943491,0.05112150,0.04742844,0.05151906,0.05425001,0.04294937,0.05213798,0.05142746,0.05775203,0.06471087,0.07132765,0.07063466,0.08295282,0.10540995,0.12527302,0.12717671,0.14876727,0.16421861,0.16991086,0.17962419,0.18600981,0.21027400,0.24058527,0.28702657,0.31739920,0.37237869,0.42363957,0.43959292,0.48664689,0.51108788,0.52480701,0.52475095,0.53582810,0.52965259,0.49773078,0.50828873,0.46858910,0.44440545,0.42014667,0.35658171,0.31784466,0.26772530,0.23812172,0.20145199,0.16792076,0.13216312,0.13085991,0.12049290,0.10088145,0.11601162,0.12510345,0.12183740,0.13245710,0.12799242,0.13471660,0.13274506,0.12684968,0.13115831,0.10757498,0.10864873,0.10008169,0.08327072,0.08709773,0.08606380,0.08367711,0.08989578,0.09522587,0.09144192,0.09641584,0.11477320,0.11492513,0.10757452,0.14188682,0.12781857,0.14441369,0.16699710,0.17758759,0.20019717,0.20363316,0.21468060,0.22750091,0.23553369,0.22436556,0.21664169,0.23262069,0.21794461,0.20733442,0.20724638,0.20205173,0.20476643,0.22624037,0.25046417,0.26438254,0.27470364,0.27285098,0.25925973,0.24808585,0.22844072,0.19697488,0.17941952,0.15053033,0.12679670,0.11629047,0.11191353,0.10975017,0.10151531,0.10309435,0.10630548,0.10991211,0.10847039,0.12227755,0.11877392,0.11873095,0.13143621,0.16690210,0.17683232,0.19109542,0.21394200,0.25425695,0.29003413,0.32953504,0.34791284,0.38820114,0.39251753,0.42217092,0.44201532,0.45108829,0.45355522,0.43091552,0.41872197,0.37975384,0.35192177,0.34535602,0.31106466,0.27811223,0.24942459,0.23048184,0.20164723,0.20218160,0.18082527,0.19184485,0.17647838,0.18621788,0.20285699,0.21736435,0.22588066,0.26133493,0.28401643,0.33236697,0.35464812,0.38972275,0.44472290,0.44685794,0.48876441,0.51119648,0.54593401,0.56258786,0.54498888,0.53222497,0.52646246,0.47446003,0.46325974,0.40603156,0.37496959,0.32981826,0.29367211,0.27120588,0.23255515,0.22044510,0.21058941,0.20097171,0.19309516,0.19689438,0.17637632,0.19249580,0.17559374,0.18032523,0.17356072,0.17004252,0.16983938,0.15695027,0.17313220,0.15834825,0.17054799,0.18534949,0.19927770,0.23667397,0.26940189,0.29690710,0.35224223,0.37724838,0.41971665,0.47120011,0.48968826,0.49105865,0.51975751,0.50327272,0.50624719,0.50693623,0.48866221,0.48710667,0.49562433,0.49123667,0.49782360,0.47836398,0.48082800,0.47033867,0.47239479,0.45331498,0.41892470,0.35968912,0.32298210,0.29270232,0.24382447,0.22202386,0.21611127,0.18790408,0.18544911,0.16805005,0.16734696,0.18049598,0.17440220,0.17242122,0.19903992,0.18205643,0.18886667,0.20007889,0.18860527,0.22952501,0.22255247,0.24518314,0.24441588,0.25443162,0.25145175,0.26241783,0.25979884,0.25258234,0.26787485,0.25373220
0.01336017,0.00684419,0.02167793,0.02650297,0.03567380,0.03842817,0.03225681,0.03906797,0.02588233,0.02228512,0.01118819,0.00479842,-0.00834567,-0.00685349,-0.01176175,-0.01886467,-0.01422250,-0.01535300,-0.02111547,-0.02240974,-0.01827725,-0.00859962,-0.00078276,0.00401492,0.01317565,0.02634945,0.03097243,0.04156024,0.06061075,0.05798847,0.04766549,0.02525628,0.02034221,0.01578225,0.00525255,0.00476714,0.00350546,0.01208655,0.00508723,0.02021780,0.02238938,0.03270844,0.02012945,0.01653363,0.03112837,0.01648272,0.01210183,-0.00084003,0.00681072,0.00151230,-0.01407389,-0.00895002,-0.00310463,-0.01300878,-0.02055663,-0.00229124,-0.00837573,0.00590807,0.00168337,-0.00891025,-0.00694784,-0.00237104,-0.00205103,-0.01017929,-0.00738260,-0.00800918,-0.00724503,0.00295657,-0.00469581,0.00141078,-0.00023527,0.00537334,0.00752550,0.01541292,0.02445412,0.02230307,0.03908148,0.05239014,0.06561046,0.08341882,0.08679319,0.10832856,0.13056966,0.15508751,0.19408248,0.22852857,0.29152763,0.33160746,0.36411635,0.39325766,0.42439198,0.43571219,0.43559419,0.43272371,0.40105106,0.41912825,0.39852965,0.38438405,0.39910898,0.37753923,0.39556662,0.36973158,0.34577508,0.31254515,0.28752184,0.24281636,0.20768694,0.17375120,0.13303833,0.09885959,0.09794066,0.09965347,0.08551518,0.09988964,0.11332593,0.12224068,0.11312891,0.11691258,0.09917837,0.08228277,0.07782229,0.07156734,0.06025767,0.05501085,0.04457434,0.05334338,0.06115862,0.07545440,0.08691208,0.11275886,0.13154553,0.16062532,0.17796410,0.20274480,0.21746899,0.22702033,0.23824675,0.24854481,0.23409663,0.22554991,0.21359490,0.20040730,0.18291655,0.16652026,0.13877673,0.12680267,0.09384019,0.09320350,0.07974732,0.07574334,0.06850014,0.06191385,0.05846205,0.05346127,0.07041736,0.06674776,0.05348903,0.06264978,0.05540322,0.04707004,0.03562385,0.03552018,0.02773622,0.02129510,0.01690946,0.02178971,0.02301829,0.01686242,0.02210934,0.02755042,0.02938908,0.01427855,0.04488978,0.04073771,0.04806664,0.05795470,0.08386223,0.09495687,0.11764885,0.12731541,0.15937476,0.20097942,0.22031236,0.25720166,0.28052012,0.28547086,0.32211848,0.32441333,0.33488608,0.31743672,0.32619286,0.29164800,0.27741324,0.25865703,0.23116924,0.20138083,0.18207552,0.17232250,0.16890850,0.17203485,0.17598324,0.17629459,0.20936700,0.22103416,0.24638816,0.29061118,0.30785739,0.35548361,0.38428665,0.42445321,0.42026820,0.42447983,0.46150820,0.45428339,0.45805534,0.45012190,0.44347064,0.44344159,0.40690625,0.38811064,0.36954208,0.34298471,0.32249895,0.29941302,0.27391716,0.23951364,0.22251158,0.21476064,0.22612500,0.23155975,0.23286383,0.25608109,0.27270209,0.28044122,0.31313093,0.30014985,0.30596377,0.30022863,0.27581722,0.26918230,0.21758182,0.19370805,0.17190558,0.14637946,0.13134548,0.11125711,0.12360152,0.11850898,0.13944703,0.15056296,0.17957836,0.20589820,0.22076220,0.24575075,0.27876878,0.30760004,0.32834507,0.33178159,0.34789782,0.34396192,0.34428149,0.32533667,0.29743635,0.27539372,0.23653615,0.20035898,0.17923933,0.16631861,0.15030052,0.13822796,0.11647304,0.10460679,0.08770861,0.07895002,0.06765401,0.05428011,0.05707741,0.05065856,0.04612916,0.04172589,0.03987944,0.04928760,0.05652560,0.05512943,0.05047113,0.06286649,0.05969288,0.07146073,0.06955658,0.08130590,0.08779300,0.09337896,0.08317906,0.09647227,0.11500099,0.09769725,0.10209673,0.11373115,0.12615314,0.11831996,0.13086940
0.00648875,0.00780352,0.00631428,0.01873425,0.00598059,0.01032285,0.00572146,0.00210862,0.01091790,-0.00055217,-0.00357278,-0.01707194,-0.01144136,-0.01926849,-0.02916802,-0.01828137,-0.02677424,-0.03125136,-0.02196176,-0.01924761,-0.03624087,-0.01843866,-0.01376108,-0.02158163,-0.00205673,0.00183959,0.00384575,0.01734904,0.00908308,0.01980995,0.00687267,0.00756486,0.00411306,-0.00329335,-0.01151391,-0.01568424,-0.01201425,-0.00226624,-0.01306612,-0.00529816,-0.00981458,-0.00750322,0.01168665,-0.00248606,0.00360860,-0.01160152,0.00196219,-0.00521533,0.00260541,-0.00739006,-0.00587566,-0.01098054,-0.01097903,-0.01039446,-0.01754782,-0.01989953,-0.00799382,-0.01265265,-0.00625365,-0.00210668,-0.00511909,-0.01120111,-0.01281594,-0.00568248,-0.01285217,-0.00140462,-0.01190142,-0.01155352,-0.00085312,-0.00773535,-0.00245046,0.00143182,0.00344318,0.00231741,0.00568634,0.01164967,0.02260942,0.03028944,0.03955863,0.04559449,0.06681189,0.07921236,0.10096898,0.14361519,0.17723576,0.21149999,0.26183420,0.30788608,0.32751499,0.36971484,0.40468745,0.40971526,0.42778001,0.42393302,0.42736059,0.41844960,0.38484757,0.39628330,0.38709613,0.36322363,0.37185608,0.32206111,0.30800357,0.27680958,0.23818864,0.21223648,0.17420345,0.12903351,0.10493342,0.07174452,0.05535972,0.04927662,0.04089016,0.03647551,0.04587646,0.04177491,0.03687911,0.04260402,0.03019035,0.02975293,0.04001396,0.03573358,0.03706279,0.02619174,0.02815265,0.03455376,0.03528772,0.04272758,0.04501008,0.06444572,0.07071248,0.08976470,0.10894425,0.11842608,0.13607354,0.13890899,0.13897316,0.15292756,0.15543723,0.15038964,0.13418984,0.11832530,0.10975241,0.11630748,0.09556134,0.08847999,0.08934962,0.07573987,0.07328865,0.07060988,0.07936067,0.07972945,0.07778590,0.10553125,0.12102355,0.13294843,0.13017128,0.12417395,0.12643378,0.11511696,0.10875815,0.08012315,0.06654621,0.05497943,0.04407601,0.03398686,0.04398074,0.03846204,0.04916586,0.03851589,0.03209645,0.04252855,0.05157095,0.05701197,0.05784504,0.07386254,0.08219109,0.11257176,0.14201244,0.16728058,0.19590061,0.24043625,0.27337022,0.30130360,0.35041966,0.37129547,0.40843340,0.44428382,0.46016292,0.43716711,0.42490553,0.42540705,0.38593432,0.35994537,0.34192977,0.29255798,0.25632020,0.24011059,0.20334177,0.18311327,0.16751082,0.16026833,0.16628116,0.17141848,0.17729056,0.21576266,0.23279932,0.23850279,0.27750826,0.29810383,0.29719702,0.33291292,0.35581827,0.37006997,0.36215920,0.38585747,0.36702272,0.38590191,0.36857576,0.36065649,0.34916805,0.31849474,0.29461695,0.27439689,0.24231486,0.22778976,0.20169913,0.18228125,0.18201836,0.16673204,0.15248811,0.17972108,0.17350108,0.19532701,0.20048305,0.21400276,0.22291893,0.20965646,0.20091469,0.19885577,0.17340607,0.16759973,0.15365566,0.13592100,0.12700603,0.11655475,0.10876202,0.11042858,0.11216387,0.12495243,0.13161547,0.17817352,0.19550266,0.22455367,0.25449337,0.26989786,0.30369726,0.29705996,0.31843103,0.33152314,0.33307187,0.31184179,0.30502708,0.29313686,0.27311239,0.25747870,0.26032102,0.23979975,0.24102452,0.22410762,0.22093909,0.20957924,0.19076219,0.16958610,0.13968597,0.12649722,0.11023488,0.09230335,0.09363480,0.08996851,0.09544559,0.09162491,0.08397454,0.09653811,0.09956376,0.10092888,0.11096587,0.12606542,0.12801634,0.13323393,0.14559539,0.14673683,0.14836967,0.16320178,0.16681544,0.15645859,0.18244038,0.20271719,0.17846454,0.19311843,0.17554475
0.04107382,0.05257059,0.05111275,0.06633437,0.07033598,0.06841137,0.07968031,0.06149456,0.06678150,0.07093610,0.04772170,0.04022855,0.03766603,0.03550519,0.03147753,0.01589301,0.01559334,0.01987252,0.03015966,0.01692500,0.01778515,0.02798884,0.03427195,0.04017420,0.04465229,0.07268368,0.08217638,0.08967761,0.09345116,0.09175370,0.08269641,0.07941428,0.06942805,0.05948756,0.06442905,0.06676778,0.08976797,0.11298397,0.14523073,0.16503070,0.19871240,0.20609361,0.21993668,0.20578934,0.19622266,0.16735257,0.15698231,0.12208785,0.08917038,0.06802537,0.06098014,0.05384373,0.03685238,0.03569510,0.03027958,0.03323843,0.03181584,0.03378161,0.02956991,0.02990765,0.02749111,0.03229666,0.02233426,0.02836710,0.02200881,0.02934940,0.02777881,0.03833084,0.03510088,0.03265620,0.04000215,0.03877144,0.04927254,0.07545668,0.10665829,0.13594990,0.15121045,0.17952915,0.18461592,0.18444447,0.18251500,0.15065608,0.14295324,0.13444193,0.13135920,0.12998316,0.15889628,0.15979976,0.18821396,0.20546573,0.20662455,0.23842278,0.24778695,0.26388107,0.27795961,0.29967525,0.32080162,0.34523694,0.37014661,0.39351956,0.41700981,0.41687082,0.42426248,0.38982655,0.35697113,0.29785689,0.25432349,0.21883544,0.17857012,0.13371217,0.11525669,0.09636630,0.09158110,0.10414378,0.10666435,0.10649357,0.11131384,0.10547806,0.08884351,0.10036068,0.08242658,0.08274972,0.06947948,0.08364307,0.06638305,0.08190727,0.07803542,0.10667866,0.12673075,0.14333190,0.17578199,0.21403127,0.23630255,0.27980089,0.29177581,0.33825970,0.38540784,0.38805116,0.40591131,0.44004227,0.44956014,0.44440246,0.43093135,0.45015927,0.41368571,0.39473161,0.36050954,0.34106576,0.30022211,0.25532736,0.22914519,0.19610926,0.18756047,0.16299208,0.15294720,0.12006087,0.13500399,0.11803913,0.10957665,0.09960234,0.09022350,0.07575097,0.07074297,0.05985110,0.06086822,0.05736900,0.04733012,0.06037302,0.05838906,0.05344356,0.05743670,0.05555902,0.05407269,0.05703393,0.07214301,0.06891855,0.07325626,0.07143950,0.09021336,0.10282409,0.10437919,0.10420008,0.13629469,0.12900338,0.13457319,0.14426203,0.15174201,0.16925963,0.16407620,0.14395384,0.15669536,0.14078756,0.15439761,0.14835147,0.13603766,0.13114842,0.13549334,0.14402964,0.15405948,0.16274893,0.18964906,0.20077414,0.23898048,0.27419110,0.30995200,0.34642434,0.37919548,0.42965249,0.44113299,0.47963467,0.50461239,0.50555577,0.51000511,0.50701335,0.52556687,0.48156142,0.48726482,0.45840116,0.42420241,0.41349177,0.38878304,0.35418755,0.32969955,0.28834367,0.27855216,0.26939615,0.24899058,0.24407981,0.25383263,0.25291034,0.26908013,0.30183536,0.31134552,0.34431646,0.37761290,0.37872983,0.39835768,0.38772722,0.37580655,0.33273236,0.31200290,0.28795434,0.23488572,0.20898295,0.19607889,0.17195607,0.15645247,0.15963561,0.16990317,0.17475198,0.18261730,0.21788162,0.24302130,0.28347562,0.33003616,0.38214331,0.43233962,0.47285345,0.54293627,0.56416098,0.56652251,0.59453101,0.58589063,0.56605699,0.53200131,0.49789248,0.47577976,0.45630190,0.42169104,0.42088703,0.37194897,0.34629495,0.30890545,0.27330882,0.23006723,0.19168278,0.15962688,0.13469656,0.12735550,0.10624912,0.10539153,0.08876967,0.08547662,0.08717256,0.10182890,0.09055611,0.09797049,0.10270728,0.10442388,0.10283718,0.10508917,0.11036410,0.10828524,0.09524131,0.11586362,0.10821648,0.12610969,0.11697791,0.12424684,0.11374536,0.11118311
-0.01709015,-0.01823066,-0.00901680,-0.01080423,-0.01011983,-0.00334040,-0.00100075,-0.00511723,0.00357381,-0.01382212,-0.00321601,-0.01229371,-0.00733327,-0.01188076,-0.03123051,-0.01359246,-0.02015676,-0.03069969,-0.02706785,-0.02728989,-0.01862355,-0.02093087,-0.02692640,-0.02051889,-0.01792786,-0.00535455,-0.00970275,-0.00036028,-0.00016881,0.00762735,0.01131797,-0.00334193,-0.01304616,-0.01900194,-0.01676217,-0.00792488,-0.01295845,0.00300315,-0.00358086,0.00945961,0.01295512,0.01251215,0.02646902,0.03031793,0.01898498,0.02556304,0.01049642,0.00014577,0.00413866,-0.00763028,-0.01101212,-0.00666124,-0.01419410,-0.02152997,-0.02576672,-0.01942990,-0.02499321,-0.02109056,-0.02030431,-0.02360600,-0.02685643,-0.01288761,-0.02443942,-0.01355897,-0.02009177,-0.02514974,-0.02224969,-0.02370359,-0.02150654,-0.01820403,-0.02097969,-0.01887404,-0.00754290,-0.01502160,-0.01875815,0.00976355,0.00630924,0.02144224,0.01403674,0.03271039,0.02230799,0.04060596,0.04005820,0.04879696,0.05984627,0.08153250,0.10143767,0.14183022,0.16183291,0.19662457,0.22616493,0.27444311,0.29462148,0.33802601,0.37639304,0.40425732,0.42577961,0.45526372,0.43627570,0.44885079,0.42598959,0.38812227,0.36094087,0.30720919,0.25736290,0.20583375,0.15721979,0.12863587,0.08828270,0.05102606,0.04432748,0.04023186,0.04916018,0.05652909,0.05457763,0.06793519,0.06093485,0.06184388,0.06148553,0.04985661,0.03530606,0.04145958,0.01994873,0.01009161,0.01038448,0.00045755,-0.00566282,-0.00268453,-0.00184006,0.00705090,0.02036176,0.02864599,0.02726533,0.05458616,0.05750948,0.06708495,0.08005234,0.08443536,0.08551461,0.09762167,0.08457566,0.09769641,0.09173742,0.08411910,0.08466756,0.08043752,0.07384931,0.06623080,0.07283306,0.07610034,0.07699215,0.10059813,0.11481306,0.14094406,0.17093369,0.19948154,0.21090517,0.20859325,0.19706180,0.16290960,0.13677321,0.09342394,0.06180198,0.03366861,0.01927232,-0.00061483,-0.00080659,-0.01233236,-0.01477612,-0.02881064,-0.02223663,-0.02236062,-0.03029680,-0.02445411,-0.02379641,-0.00964191,-0.00593324,-0.00649002,-0.00196544,0.00332075,0.02106555,0.03003978,0.03240922,0.04153848,0.03492859,0.04528820,0.05954707,0.06766824,0.07285053,0.06451446,0.05924572,0.06273238,0.06036399,0.04666101,0.04498673,0.03288565,0.04062083,0.03150034,0.03523389,0.02864383,0.03539254,0.03473477,0.04642743,0.06502224,0.08682324,0.09745234,0.12362828,0.16578141,0.19420004,0.22372973,0.26714258,0.31999471,0.34789442,0.42296486,0.45427887,0.48893958,0.54496396,0.57820623,0.55822570,0.58798687,0.55807523,0.52940782,0.52275290,0.44582667,0.42434193,0.34588603,0.29487876,0.25308403,0.21598575,0.16882977,0.14719816,0.12263857,0.12023233,0.10283205,0.09945428,0.10256545,0.10609135,0.10271246,0.09672717,0.08553895,0.07759923,0.06829401,0.06158085,0.04678311,0.04097891,0.04657286,0.05927388,0.07287801,0.08838503,0.11540678,0.15626991,0.21692017,0.25759258,0.31559920,0.36345547,0.40157914,0.43934545,0.46892002,0.45926309,0.47582830,0.44919981,0.41292663,0.38072549,0.37837335,0.35918967,0.35413384,0.34280998,0.34269271,0.34440639,0.32286748,0.31254139,0.28427698,0.24849281,0.17973692,0.14011468,0.10740432,0.06507527,0.03707126,0.01432894,0.00055917,-0.01386651,-0.01571341,-0.00829904,-0.02335737,-0.02175747,-0.01271047,-0.03039145,-0.02509087,-0.01612534,-0.01527221,-0.01424781,-0.02074897,-0.00361372,-0.02484032,-0.00045456,-0.00486208,-0.00871649,0.00411049,-0.00213767,-0.00156356,-0.00095649
0.01526483,0.00830690,0.01831691,0.01104719,0.01688661,0.02343206,0.01727729,0.02560066,0.02083445,0.02333095,0.00556773,0.01083230,0.00751739,0.01055854,-0.00324745,0.00111257,-0.00074291,-0.00920500,-0.00490687,-0.01202305,0.00206172,-0.00551674,-0.00154498,0.01098033,0.01298882,0.02367830,0.02452979,0.02907891,0.02962146,0.04226533,0.03285517,0.02944769,0.01864574,0.02971511,0.02181357,0.03977418,0.04082187,0.06978772,0.07536639,0.08097474,0.10299196,0.11638956,0.11089803,0.12254429,0.11874717,0.09476366,0.08965707,0.07149583,0.04501249,0.04038953,0.02846311,0.01440255,0.02340373,0.00443910,0.00880216,0.01186736,0.00492207,0.00957926,0.01439343,0.01196728,0.01034816,0.00892917,0.00984359,0.01080445,0.01548791,0.00958612,0.02049897,0.01725221,0.02016148,0.01698780,0.01628989,0.03568066,0.03235000,0.05354848,0.05926185,0.06472477,0.09682427,0.11244654,0.12093977,0.13331828,0.12463628,0.11580142,0.10742650,0.11745309,0.12725127,0.14816271,0.15578868,0.18029315,0.20916520,0.21874597,0.24974660,0.26356815,0.27884121,0.30934887,0.31543608,0.33504747,0.35400872,0.36958197,0.38194291,0.37545505,0.36880617,0.34694682,0.32939901,0.28762180,0.24189849,0.21288756,0.17336949,0.13010436,0.10346440,0.07550201,0.06591037,0.05856816,0.03512773,0.03149748,0.04581690,0.04533035,0.03964966,0.06215040,0.04111511,0.03964242,0.04208992,0.03757019,0.04308585,0.03734720,0.04560321,0.04237305,0.05240998,0.05163963,0.07186316,0.08134268,0.09704853,0.10855081,0.11733027,0.13583861,0.14178573,0.17486073,0.18389893,0.20589037,0.20645838,0.23275832,0.24266917,0.24582643,0.23713232,0.25005142,0.25344637,0.22397757,0.22015267,0.20692018,0.20181340,0.17857175,0.17494965,0.17471785,0.17957506,0.18769207,0.19184894,0.20616594,0.20314602,0.19665654,0.17116162,0.15440983,0.13467209,0.11371377,0.09613239,0.07662885,0.05732549,0.05180283,0.04405436,0.03961029,0.04337145,0.04765741,0.04853130,0.04837275,0.06144126,0.05863045,0.05908983,0.07000997,0.07480729,0.08527660,0.09566899,0.11035892,0.12239444,0.14175509,0.15698857,0.16845792,0.18679624,0.21444635,0.22892316,0.22303851,0.23565577,0.24680247,0.23476102,0.22614182,0.22103317,0.20055476,0.18130327,0.17028252,0.15364650,0.14209983,0.13562343,0.13077921,0.12296025,0.13489409,0.13967855,0.15297623,0.18284796,0.19205516,0.21402524,0.24794301,0.28020433,0.28348457,0.31034571,0.32467392,0.35576783,0.39091989,0.40851810,0.40017063,0.41367579,0.41811253,0.41674534,0.39142147,0.37829339,0.35002393,0.34254124,0.27884821,0.24523910,0.22921388,0.19594551,0.19480556,0.17748828,0.17575066,0.16697671,0.17994954,0.19080286,0.17189414,0.19607130,0.18967339,0.20443266,0.19595702,0.19999066,0.18712396,0.17003311,0.14163903,0.13837110,0.11901912,0.11553510,0.10142560,0.10362041,0.10110688,0.13144896,0.14468815,0.16452564,0.20367993,0.22560554,0.26901879,0.31225424,0.35426522,0.38592072,0.42275631,0.42126714,0.44441471,0.43516065,0.44847180,0.44596275,0.44027248,0.43161600,0.43655970,0.44265826,0.40784838,0.42257292,0.40675133,0.39149081,0.32946243,0.31150666,0.25576036,0.19996032,0.17965529,0.13942663,0.12541494,0.09456569,0.09508032,0.07917123,0.08747375,0.08228884,0.07775935,0.07850319,0.08711366,0.08841730,0.08255652,0.09595423,0.09025351,0.09377342,0.10404882,0.11237374,0.10908697,0.12187933,0.11269658,0.11531360,0.11654014,0.11727096,0.12989617,0.12885262
-0.01414242,-0.00205239,0.00104994,-0.00019928,0.00490967,0.00726781,0.01239870,0.01470842,0.00798271,0.00055146,0.00149877,-0.00083654,-0.00906980,-0.00316333,-0.01350783,-0.01740662,-0.01117168,-0.02228381,-0.01385608,-0.01472836,-0.01993733,-0.01883936,-0.01060747,-0.00543755,-0.00303221,0.00894152,0.01702353,0.02225194,0.01978099,0.02430252,0.01484081,0.00781259,0.01525232,0.01812708,0.01731322,0.03425988,0.03956424,0.05818243,0.08841067,0.09054244,0.12497406,0.13339889,0.13138541,0.12670142,0.12137138,0.09773265,0.08331508,0.06591757,0.03135194,0.02672642,0.00490268,0.00173735,-0.01150355,-0.00717592,-0.01266119,-0.01109688,-0.00136392,-0.00352517,-0.01019790,-0.01221966,-0.01201529,-0.00924557,-0.01305789,-0.00806074,-0.01123872,-0.01009575,-0.01485458,-0.01086456,-0.00786031,-0.00048646,-0.00444361,-0.00177575,0.01905484,0.02100705,0.06437158,0.07296152,0.10181768,0.12015452,0.13185265,0.12358022,0.12726500,0.12490855,0.12948296,0.13538726,0.15178257,0.18953555,0.23845478,0.26734491,0.31364039,0.34525070,0.35674962,0.38073725,0.37188728,0.37978538,0.36943040,0.33156805,0.34328238,0.32538553,0.29933238,0.29293991,0.27180489,0.25728700,0.22735737,0.19701627,0.16437393,0.14136999,0.11947943,0.10513549,0.09297143,0.07909906,0.08468443,0.08760787,0.11593139,0.12442388,0.15326282,0.15349843,0.15004523,0.14363460,0.14184127,0.12513364,0.10266943,0.06866077,0.05600779,0.03656179,0.03070598,0.03495989,0.02659671,0.04089849,0.05043322,0.06304821,0.06922323,0.09244469,0.11480679,0.12931050,0.14708972,0.17333513,0.19210733,0.21938937,0.24262684,0.26345759,0.27064094,0.24879152,0.27449494,0.28052396,0.26995843,0.25447883,0.23287095,0.21142806,0.17694455,0.15063467,0.12412991,0.09076842,0.08602549,0.08020796,0.06008243,0.05320073,0.05442288,0.04865615,0.03351542,0.01843870,0.02383067,0.00967218,0.01029619,0.00277328,0.00217512,-0.00387972,0.00476085,0.00285311,0.00893743,-0.00141761,-0.00087637,0.00664385,0.00452652,0.00573773,0.01385998,0.01138753,0.03369948,0.04347109,0.04573999,0.05582541,0.07697839,0.07135777,0.09868373,0.10175090,0.11384548,0.11874231,0.13483242,0.13280389,0.13969389,0.12570967,0.13379590,0.11438899,0.13052218,0.10323665,0.09326820,0.08680163,0.07399589,0.08123693,0.07638821,0.08603248,0.09094304,0.09723029,0.13329870,0.13709125,0.15008244,0.16529779,0.20598702,0.23805093,0.25942467,0.28832626,0.30480000,0.34522293,0.38187266,0.39262641,0.40094548,0.43949706,0.45245732,0.45206177,0.45521866,0.46547671,0.42780829,0.39275989,0.39155665,0.35717995,0.31026814,0.28881910,0.23644099,0.23068693,0.20840460,0.18903890,0.18276738,0.17869734,0.17968818,0.17675123,0.17755076,0.18981385,0.16543662,0.17232633,0.15091311,0.14231638,0.12628605,0.11957707,0.11261151,0.10747661,0.10810080,0.10031400,0.11946911,0.12584258,0.16354419,0.17833593,0.22542732,0.25410471,0.29447217,0.31256502,0.34636105,0.37000653,0.39166491,0.42342762,0.41660724,0.43658831,0.42648757,0.42863807,0.38769088,0.36867588,0.34331572,0.33430758,0.32254139,0.29910217,0.26793869,0.26493083,0.22290909,0.20931652,0.16072323,0.12368837,0.09745419,0.07103136,0.05412436,0.04215611,0.03209991,0.02120126,0.01681312,0.01459928,0.01377542,0.02568341,0.02445315,0.02431989,0.02084598,0.03126834,0.03261698,0.03352290,0.03000213,0.03071283,0.03162327,0.05199181,0.04480332,0.05242511,0.04557370,0.04417119,0.04366195,0.04325420,0.03619229
0.06300217,0.05347030,0.06582686,0.06649414,0.07217611,0.09042032,0.08577070,0.07002202,0.06481226,0.05698327,0.05009260,0.03925256,0.02559115,0.02995932,0.00677714,0.01515644,0.01174943,0.00791503,0.00273909,0.00412947,-0.00207331,0.01070331,0.02013079,0.02369298,0.03914226,0.05799183,0.06689721,0.08210578,0.09116377,0.09623250,0.06584007,0.05175960,0.04468679,0.02782401,0.02120160,0.01208269,0.01241836,0.00472882,0.00916790,0.01108231,0.02291547,0.02177401,0.01076574,0.01713285,0.02669918,0.01504484,0.00936632,0.00491934,0.00993835,0.00146552,0.00808543,0.00236424,0.00134134,-0.00186364,0.00706051,-0.00068391,0.00515370,-0.00379352,0.00532064,-0.00182968,-0.00445052,-0.00896643,-0.00189888,-0.00129204,-0.00519129,-0.00670184,-0.00387224,-0.00226841,-0.01044235,0.00792259,0.00170327,0.00854677,0.00121369,-0.00048907,0.01420715,0.01872962,0.01754603,0.02783221,0.04728235,0.04003051,0.06440890,0.07972549,0.09620779,0.12321620,0.15644862,0.19880580,0.23863220,0.27593775,0.30318013,0.32688873,0.35462482,0.36411477,0.35419797,0.35497648,0.33892691,0.32427349,0.34575528,0.33768816,0.36150190,0.35980072,0.37478731,0.38245513,0.38288278,0.36848176,0.32522173,0.28411573,0.23733345,0.17690267,0.13191912,0.11101959,0.07558365,0.05462817,0.05195553,0.03819530,0.02896186,0.02684019,0.02591753,0.02138872,0.03617382,0.01767758,0.01059817,0.01012237,0.01881632,0.01443329,0.01427561,0.02029947,0.04547031,0.04537053,0.06774787,0.07907608,0.11259541,0.14907175,0.17411293,0.20961484,0.21752517,0.23824914,0.24431463,0.24372469,0.25497959,0.22960556,0.21551444,0.18092461,0.14613885,0.12939926,0.11417375,0.08380063,0.06998415,0.05799477,0.03915137,0.01647242,0.02925878,0.01796161,0.01810309,0.01429887,0.00909789,0.01487006,0.02613545,0.02292005,0.01409617,0.00846842,-0.00315678,0.00070100,-0.00700507,-0.00239439,-0.01139371,-0.01006922,-0.00974657,-0.00648561,-0.00820424,-0.00673766,-0.00783460,0.00097315,0.00476335,0.00792809,0.01432263,0.02429420,0.04392867,0.06195385,0.08450377,0.11046677,0.12240800,0.17446460,0.21115042,0.23392630,0.26231809,0.30160712,0.33696462,0.34163875,0.34738483,0.35885450,0.35677617,0.33800158,0.32466542,0.29106225,0.25917723,0.22409923,0.20428647,0.18000175,0.16276728,0.16291146,0.15280401,0.15749107,0.19107932,0.21212801,0.23439680,0.25670351,0.28825535,0.31850979,0.36979961,0.39237207,0.39668071,0.40491594,0.41211965,0.39859112,0.38884144,0.35576766,0.34464172,0.31032940,0.26894429,0.25469549,0.21685457,0.19213584,0.16280318,0.13026649,0.12330883,0.10353756,0.10914796,0.10629731,0.12174603,0.12933974,0.15494234,0.17547829,0.20965447,0.24839436,0.28402548,0.30232386,0.30316205,0.30293223,0.29630807,0.28088426,0.24699781,0.21155702,0.17488652,0.14124928,0.09745421,0.07397833,0.06023394,0.03504780,0.02334952,0.03260752,0.03544670,0.04217403,0.06736732,0.08333070,0.10459518,0.14083826,0.15575811,0.19415218,0.20808651,0.22563775,0.23518647,0.24533554,0.20462373,0.19537585,0.17019012,0.14360762,0.11381378,0.09608127,0.08076308,0.05565793,0.03881159,0.02679649,0.02074039,0.01906250,-0.00111408,-0.00152435,-0.01636898,-0.01358149,-0.01011932,-0.01806027,-0.01710329,-0.01196911,-0.01356409,-0.00462165,-0.00691479,0.00164724,0.00393554,0.00561219,0.02624769,0.02446118,0.03083304,0.03207991,0.03269421,0.04720820,0.05655749,0.06851486,0.06715936,0.08104780,0.07753582,0.08112344,0.08165259
0.01960818,0.00882742,0.01151456,0.00819528,0.02108958,0.01954525,0.01635725,0.01974741,0.02120938,0.01337474,0.01454358,0.01333506,0.02464089,0.01008436,0.01515562,0.01657637,0.00758242,0.01571513,0.01298855,0.01903757,0.02079290,0.03096104,0.01845766,0.01803876,0.02180719,0.01975149,0.02838784,0.02305669,0.03206659,0.03071597,0.03825526,0.03996388,0.04227325,0.05106444,0.06637126,0.10042631,0.13123679,0.15518233,0.20488678,0.24079520,0.27506559,0.28953651,0.29493665,0.28624053,0.26517069,0.23695804,0.19103770,0.14475409,0.13094690,0.09777815,0.06102580,0.04937281,0.05049022,0.02806303,0.02925728,0.02369047,0.03033629,0.02231672,0.02450471,0.03114475,0.02995424,0.02755836,0.02978891,0.02758084,0.02451846,0.01871361,0.02951243,0.03772304,0.03099668,0.04284253,0.04736656,0.06381987,0.07016011,0.10508262,0.13208716,0.19080126,0.21135951,0.23388958,0.24424664,0.23222352,0.20286714,0.17619692,0.14078145,0.11987904,0.10766340,0.11234845,0.11674909,0.12818487,0.14744028,0.17329045,0.21002860,0.21188857,0.24069752,0.28001389,0.29743003,0.32041769,0.33619569,0.32986875,0.31818762,0.33026953,0.30149528,0.27417825,0.23509431,0.20879032,0.15792920,0.13748555,0.11156164,0.09534664,0.08070916,0.06975514,0.07812120,0.07165678,0.08774598,0.09398991,0.09707748,0.09262774,0.10188506,0.09837800,0.08935962,0.08318402,0.07676569,0.06263372,0.07910020,0.05882834,0.05477181,0.05649527,0.05733489,0.07238272,0.06517357,0.08056451,0.07976393,0.09500067,0.11464265,0.14609002,0.14889955,0.19762529,0.22101906,0.26706431,0.31795076,0.37306610,0.40159032,0.45791089,0.46705802,0.46990905,0.49540334,0.46431084,0.43411305,0.42787995,0.37549038,0.33732087,0.32040386,0.29633951,0.29027375,0.29888563,0.28306095,0.26345393,0.24950227,0.24062562,0.18710466,0.18766131,0.15597149,0.11827493,0.11209951,0.08162268,0.07227050,0.06693026,0.06923447,0.05593429,0.05839284,0.07173427,0.07565862,0.07579805,0.06820600,0.06537046,0.06600040,0.06493210,0.05958883,0.06361961,0.07494552,0.07984823,0.07918569,0.07966412,0.08814923,0.09785576,0.08936752,0.09976617,0.08821925,0.10059643,0.09737200,0.09648813,0.10107208,0.09106788,0.09160648,0.09333568,0.09022307,0.09726292,0.08841160,0.08718544,0.09608736,0.10419553,0.09059881,0.11160795,0.10940068,0.11253818,0.13699927,0.14786606,0.17867333,0.18312654,0.22004772,0.24861093,0.28552595,0.30222851,0.34777330,0.38715227,0.40794938,0.45931767,0.45724273,0.46889413,0.45636790,0.46951453,0.44395371,0.42861486,0.38309430,0.34385935,0.30879057,0.28089663,0.25561508,0.21439450,0.20391534,0.17584479,0.16419635,0.15433783,0.15379248,0.15238703,0.12833558,0.13854732,0.12999711,0.13822801,0.13089476,0.12966728,0.12991941,0.12403982,0.12492721,0.13417453,0.13151722,0.15505575,0.15520585,0.18578901,0.21177620,0.24851532,0.28239164,0.32355436,0.39023575,0.43102117,0.47469252,0.52877767,0.58366816,0.60813083,0.64043044,0.65398010,0.69149746,0.68134167,0.67681317,0.71414742,0.68022169,0.69666871,0.68777950,0.69930738,0.66580699,0.63868866,0.58270003,0.52775615,0.44403636,0.36331597,0.30573865,0.23869445,0.19772190,0.16042007,0.13475453,0.13483820,0.13218523,0.11719250,0.13666602,0.11508490,0.09367682,0.11904112,0.11687358,0.11922463,0.10653155,0.11349578,0.10759438,0.11223401,0.12731800,0.11548507,0.11029689,0.10993258,0.11900067,0.13326210,0.10809799,0.11933345,0.11893614
0.05277126,0.05537318,0.04940893,0.05529880,0.06774673,0.07430661,0.07419218,0.06354118,0.06289653,0.04731066,0.05268520,0.05592753,0.03906881,0.03560535,0.04194987,0.03086808,0.04297901,0.02990091,0.03377097,0.02776650,0.03339027,0.03314336,0.03516353,0.05466545,0.04463607,0.06030213,0.07275998,0.06699901,0.07794161,0.07011103,0.05436385,0.05997955,0.06181927,0.04244943,0.06875109,0.06175726,0.07074225,0.07687532,0.07881455,0.10068906,0.10525780,0.11599042,0.11193186,0.10771008,0.10793817,0.09580811,0.08749585,0.09216202,0.06766319,0.06124364,0.04763626,0.04929035,0.04403210,0.04596329,0.04627554,0.04338532,0.05194104,0.04409442,0.04233991,0.03735241,0.04033937,0.03590519,0.04763180,0.04589693,0.05293723,0.04214395,0.04506530,0.04337959,0.03496778,0.03759311,0.04668983,0.05186072,0.06042914,0.05128004,0.06599837,0.08501204,0.09738349,0.09979135,0.11860559,0.10807771,0.11028766,0.10949723,0.10720616,0.12887213,0.14072304,0.16134522,0.17866110,0.20599038,0.23466162,0.26687453,0.30141765,0.34054136,0.37273414,0.41238474,0.42464255,0.45203287,0.46893759,0.49313992,0.52698903,0.49832772,0.47600811,0.45289980,0.41843523,0.35664974,0.31575939,0.26851319,0.20420872,0.17385088,0.14749965,0.12264162,0.11720285,0.11052422,0.11181644,0.11275749,0.11850607,0.11321484,0.12450893,0.10398030,0.10601308,0.10453647,0.09076816,0.08497790,0.08363095,0.07345329,0.05606628,0.06066250,0.07145548,0.06431715,0.07576289,0.10187779,0.10441414,0.13741360,0.14014527,0.14968488,0.16029763,0.17296791,0.19256245,0.19384231,0.21396072,0.21709962,0.22112286,0.22187809,0.20078866,0.21509775,0.19556535,0.18593791,0.18886419,0.17879639,0.15673988,0.16163518,0.16312500,0.17364712,0.19503449,0.22111384,0.22948471,0.25165800,0.26314388,0.25106269,0.23475088,0.20783822,0.17703765,0.14453149,0.11518597,0.09262494,0.07930292,0.06667264,0.06541384,0.04590129,0.05217812,0.06511878,0.05827929,0.05415337,0.06338085,0.05283373,0.05442586,0.05993636,0.06927342,0.06728655,0.08402700,0.08963939,0.09376306,0.11937255,0.11845959,0.12823818,0.13827289,0.13714052,0.14374278,0.15179329,0.15828126,0.16342624,0.16013496,0.15445364,0.14539314,0.14964108,0.13477817,0.11976953,0.12946003,0.11519515,0.12443159,0.12418808,0.12438927,0.13562928,0.15102454,0.16898607,0.19086179,0.20277274,0.24611166,0.26252142,0.30562820,0.34555885,0.39428885,0.43407737,0.48580622,0.52237499,0.54126688,0.56165707,0.59047383,0.60786767,0.61904266,0.59882379,0.58133079,0.53265583,0.51355977,0.45800991,0.42013350,0.36361740,0.32836973,0.30255480,0.25737250,0.23919804,0.20698837,0.20206713,0.20568651,0.21493375,0.21754083,0.21418925,0.23027866,0.20678757,0.19051838,0.19315713,0.16823058,0.15631856,0.13868880,0.14029075,0.13312080,0.13065794,0.11991692,0.14984863,0.18034361,0.19031067,0.24013384,0.29072907,0.32746546,0.38080357,0.44892937,0.44455001,0.51015609,0.51809459,0.53789431,0.51159062,0.50213226,0.50030529,0.48350635,0.46410360,0.45344196,0.43826959,0.42695616,0.43609452,0.42337144,0.40486391,0.38505849,0.35552510,0.29239485,0.25828737,0.20115683,0.16074516,0.12647444,0.10991349,0.09017496,0.08065227,0.07436164,0.07212367,0.06683668,0.06167722,0.06454666,0.06533707,0.06079862,0.06869608,0.06528893,0.06627503,0.07439007,0.06396296,0.07276949,0.08154122,0.07890151,0.08629035,0.09129032,0.07333696,0.07044060,0.09154856,0.08703287
0.02778228,0.02178908,0.03341485,0.03520379,0.03766447,0.04516958,0.04430313,0.04514548,0.02707402,0.02812991,0.02501642,0.01080582,0.01054395,0.00821746,0.00401097,-0.00161605,-0.00380488,0.00408232,-0.00151739,0.00753574,0.00060374,0.01622478,0.00231964,0.01802284,0.02833843,0.03638874,0.04264223,0.04822425,0.05555342,0.05172325,0.05271157,0.03047086,0.02640408,0.01617296,0.00770886,0.01795876,0.01466348,0.02046789,0.01955886,0.02726382,0.01902830,0.02583948,0.02772759,0.02599481,0.02749412,0.02473639,0.02102407,0.02448761,0.02602121,0.02414577,0.01107869,0.02530210,0.00453127,0.00580594,0.01257497,0.01294648,0.02147380,0.01523579,0.01936809,0.01927279,0.01392075,0.01396712,0.02479467,0.03361814,0.02125968,0.01566277,0.01628724,0.01316722,0.01777073,0.03178670,0.02774337,0.02953531,0.02658813,0.04331368,0.02816277,0.04862591,0.05426271,0.05724211,0.06513276,0.08506537,0.09188720,0.10838170,0.13675999,0.17686142,0.19781261,0.25920014,0.31862476,0.35594765,0.40987028,0.43431938,0.48849542,0.49553181,0.52708162,0.51747484,0.53597342,0.52558894,0.50668174,0.50597383,0.47984926,0.46006504,0.43415970,0.40803174,0.37535640,0.33328034,0.29236935,0.23797896,0.19485667,0.16936553,0.14405361,0.13724564,0.13268498,0.14102291,0.15103926,0.15991809,0.16518023,0.19745423,0.19701444,0.20052193,0.17105752,0.16058749,0.15038053,0.12124949,0.09551350,0.09055637,0.08286211,0.07360111,0.07903577,0.08843150,0.10052298,0.10949375,0.11780891,0.13660837,0.16267802,0.16816160,0.17601016,0.19185234,0.18198748,0.20468364,0.19485115,0.18578529,0.16954904,0.15633057,0.15333885,0.14297846,0.12015429,0.11328020,0.11342172,0.09572122,0.10039231,0.10759582,0.11505040,0.12597866,0.13739759,0.14158981,0.15798313,0.16906493,0.16109346,0.15923047,0.16096340,0.13842008,0.12456424,0.10402682,0.08643894,0.07695426,0.07771509,0.05660528,0.07051575,0.06710465,0.06761178,0.06995642,0.08327898,0.06862666,0.07696127,0.08323404,0.08293146,0.09284950,0.11918195,0.12042416,0.14155567,0.15508750,0.16811989,0.18222946,0.20827844,0.22067074,0.24858494,0.27882343,0.27048915,0.29535473,0.28783148,0.28321256,0.27294423,0.26618799,0.25392720,0.23162231,0.21844826,0.21931113,0.20009239,0.19387594,0.18011639,0.18047649,0.18284643,0.19191123,0.21719829,0.22728299,0.26586530,0.29693486,0.31358532,0.36406386,0.40887005,0.44473914,0.47557772,0.50959473,0.54501402,0.57707990,0.59348969,0.64375983,0.65886596,0.65339669,0.65663677,0.63134485,0.63218231,0.59383162,0.54955557,0.50168827,0.47594695,0.43281258,0.38806200,0.36701257,0.32343035,0.29496748,0.29950170,0.28502416,0.28314134,0.29733893,0.29918767,0.29926255,0.29089889,0.28154147,0.27372741,0.26581712,0.25012789,0.22084815,0.21194326,0.18788357,0.20367043,0.20496578,0.22514392,0.21865354,0.26943655,0.29776891,0.34370209,0.38266752,0.41533300,0.46894785,0.50573432,0.49163268,0.52794762,0.51807483,0.49647927,0.46948541,0.47034305,0.40470794,0.38058939,0.36930384,0.32692407,0.31912576,0.32377272,0.29636943,0.28400166,0.26485693,0.25279876,0.24263123,0.21272514,0.19079700,0.16964815,0.15628211,0.13923869,0.13047417,0.13136107,0.12391049,0.12414853,0.12811605,0.11989235,0.13586746,0.13050117,0.14027140,0.13900363,0.14191048,0.15776913,0.14916899,0.16008369,0.15306802,0.16617198,0.17345643,0.17389780,0.17615087,0.17438970,0.17805542,0.18004258,0.18448298,0.18030566
0.00781377,0.01197387,0.01149249,-0.00167102,0.00355188,0.00443781,0.00548925,0.00119511,0.00063128,0.01202098,0.00047142,0.00038381,0.00691019,-0.00020644,0.00267185,-0.00142987,0.00120455,-0.00173894,-0.00504449,-0.00126191,-0.00042298,0.01027526,0.00931131,-0.00335715,0.00263953,0.00281407,0.00432686,0.01346259,0.00831455,0.00925602,0.00724120,0.01370926,0.01346533,0.02981271,0.05010495,0.07329640,0.10145408,0.14622083,0.15606155,0.19452775,0.22842743,0.23472189,0.25450180,0.23713094,0.21871708,0.18687993,0.15784053,0.12822998,0.07855746,0.05606060,0.05010138,0.02483995,0.00822932,0.01179414,0.00011472,0.01314077,0.00209722,-0.00069250,-0.00034855,-0.00397225,0.00605856,-0.00765701,0.00467372,-0.00327097,-0.00351698,-0.00640671,-0.00238181,0.00334057,0.00800520,-0.00733089,0.01152356,0.01766285,0.04102484,0.06654139,0.09493774,0.13012696,0.16869999,0.19402215,0.21092601,0.20417356,0.19478405,0.17070109,0.13567989,0.14198704,0.15292279,0.15637312,0.17067311,0.19966748,0.22268246,0.22104258,0.24428505,0.25274482,0.26863185,0.26100461,0.24314859,0.23446372,0.23189913,0.21509369,0.19260899,0.17155759,0.15962235,0.13882078,0.11974418,0.09397082,0.07839071,0.05618487,0.04258330,0.03078574,0.02288102,0.02637714,0.03864389,0.03021553,0.03594841,0.03764512,0.03975632,0.04737940,0.05404654,0.04701153,0.03784852,0.04124062,0.02478355,0.02532003,0.02099986,0.02005210,0.01639271,0.00662022,0.00676912,0.01648013,0.01303110,0.02362114,0.02881777,0.05139316,0.04588160,0.06334880,0.08845718,0.12637564,0.16018596,0.19038478,0.23402136,0.28039148,0.33410172,0.38274442,0.38106813,0.41367319,0.40345091,0.37257049,0.35639648,0.32701001,0.29298747,0.23234884,0.21487021,0.17262826,0.15364310,0.12138951,0.10316778,0.08461672,0.07782831,0.07986111,0.06370584,0.05114543,0.03251051,0.02055651,0.01774936,0.01449336,-0.00048033,0.01054821,0.00055532,0.00493505,0.00175759,0.00077944,0.00142655,0.00598801,0.01118050,0.01587746,0.00800820,0.01880632,0.03809425,0.04136497,0.05575295,0.08241159,0.08785898,0.09848842,0.12058589,0.14394240,0.15702281,0.16866173,0.17977252,0.18822387,0.17156962,0.18543991,0.17918847,0.17330496,0.15412819,0.13007955,0.11886287,0.10070460,0.07129723,0.08491663,0.05282646,0.05440384,0.04321817,0.03360425,0.04543085,0.04072599,0.02810579,0.04207932,0.05785218,0.06643427,0.08182244,0.09672543,0.12588888,0.13194667,0.14950540,0.17172389,0.17291367,0.19701050,0.19822929,0.20823829,0.21066639,0.20029426,0.19647156,0.18475671,0.16179762,0.15473414,0.13574398,0.12389405,0.09287118,0.08972415,0.07342944,0.05738990,0.05447108,0.04279677,0.03890700,0.03869617,0.03709099,0.03458298,0.03792445,0.03899521,0.03672353,0.03770933,0.02404006,0.01626282,0.02068480,0.02498188,0.01641193,0.03251380,0.03707425,0.04389805,0.05900492,0.08292383,0.10682940,0.10985260,0.14594717,0.18223586,0.21238063,0.23207049,0.26861066,0.31659958,0.35353155,0.38231248,0.40329515,0.44105203,0.46226292,0.44447277,0.44503427,0.44752366,0.42805229,0.42141182,0.40404532,0.36620157,0.35042299,0.30629103,0.26414827,0.21466335,0.15601223,0.12081232,0.07841060,0.05733031,0.04598820,0.01510454,0.01425295,0.02499661,0.00814194,0.01327467,0.01864593,0.01327357,0.00551988,0.02350266,0.02806680,0.02097718,0.03255737,0.01938478,0.04246922,0.03480523,0.04704415,0.04452200,0.05675908,0.04414581,0.04856689,0.05073242,0.05141976
0.04498566,0.03470885,0.03917561,0.03517567,0.04420610,0.03488590,0.04188413,0.04742793,0.04039587,0.02972866,0.03292568,0.02617429,0.02065851,0.01397814,0.02057939,0.02434393,0.02244892,0.00711699,0.02391335,0.01195526,0.01513213,0.01105067,0.02143137,0.02097734,0.03283456,0.03423635,0.03568583,0.04292091,0.04024114,0.04927849,0.04784194,0.03436862,0.03540881,0.02521439,0.03567142,0.04412357,0.05210316,0.06423382,0.07521420,0.09444769,0.10001154,0.10385240,0.10078169,0.10538502,0.10584982,0.08613245,0.07141180,0.06146052,0.03987709,0.02909273,0.02626375,0.02397404,0.01648377,0.02251078,0.01753457,0.01223372,0.01462219,0.01108071,0.01356146,0.01061649,0.01604098,0.01981205,0.01601482,0.00968455,0.01730621,0.01450922,0.01334032,0.01617105,0.01770878,0.01472710,0.01691141,0.02292799,0.02617973,0.03179060,0.05295556,0.07469064,0.08969434,0.10241190,0.11204927,0.11944649,0.12258862,0.12474864,0.13538420,0.16503185,0.18607239,0.21917728,0.25817842,0.30985053,0.32899981,0.38587806,0.41142950,0.43066670,0.45213377,0.46679374,0.46924913,0.47608522,0.44654544,0.45414557,0.40566077,0.37436716,0.33410211,0.30947120,0.28474898,0.24409312,0.20290699,0.15456407,0.13027915,0.10824201,0.09580120,0.09126404,0.08322281,0.08075290,0.10498410,0.12068551,0.12630464,0.13037107,0.14110519,0.13336788,0.12245455,0.11766263,0.08865152,0.06969599,0.04851322,0.03683588,0.04628953,0.02611106,0.03814194,0.03203211,0.03758404,0.05188902,0.06327856,0.07109456,0.09379646,0.09135601,0.10844676,0.12928278,0.13916059,0.15099414,0.16605404,0.17975285,0.18820750,0.17745197,0.17880157,0.18198786,0.17936746,0.16598176,0.17767194,0.15915233,0.13651035,0.12765963,0.12097162,0.12635403,0.13537454,0.14348437,0.15321557,0.15057598,0.14093162,0.14317766,0.12477803,0.09824839,0.08238555,0.06115694,0.04566733,0.03125589,0.01556565,0.02430897,0.01943914,0.01977567,0.00844982,0.00932670,0.01652590,0.01338898,0.01500283,0.02694490,0.02317735,0.03736748,0.05191818,0.06268657,0.05905276,0.08702506,0.10874291,0.13131923,0.14293837,0.16869251,0.18912864,0.20624640,0.21180279,0.21008838,0.21729887,0.21963126,0.20481948,0.19346267,0.18798268,0.15988245,0.14874532,0.13660326,0.12413773,0.10480421,0.08790059,0.10193422,0.08441030,0.09539988,0.09755374,0.11353544,0.12109390,0.14295013,0.17834608,0.20382138,0.23687660,0.26292565,0.28844551,0.31143891,0.36721720,0.42567339,0.44273526,0.46367818,0.48989420,0.51117488,0.50196593,0.49126028,0.48683671,0.45895887,0.41563768,0.38865770,0.32633581,0.29295293,0.25372611,0.22674373,0.19857085,0.16114995,0.16704717,0.14610101,0.13204365,0.13445182,0.13169248,0.12728192,0.11908264,0.12982188,0.10029412,0.10393530,0.09357165,0.08144665,0.07885021,0.06852146,0.07276367,0.08347808,0.08747935,0.13007460,0.16358491,0.18919664,0.22521831,0.27161292,0.30931910,0.35915495,0.38661920,0.40466409,0.42437027,0.42804837,0.42115558,0.42925313,0.38992961,0.37577745,0.37245151,0.35492842,0.35479707,0.34001057,0.32498705,0.31273916,0.30154657,0.27809338,0.26286480,0.22803611,0.19120580,0.15038918,0.11793011,0.07967526,0.05425882,0.03408734,0.03967377,0.02540220,0.02600556,0.02103407,0.01673558,0.03124955,0.02224364,0.03111665,0.03950577,0.03768410,0.04213252,0.04621052,0.04733514,0.05325374,0.05290269,0.05768715,0.06212155,0.05469797,0.06721070,0.06734246,0.06745112,0.07242402,0.07631230
0.03476889,0.03173994,0.03989251,0.05174221,0.05270425,0.05924542,0.05210460,0.05515714,0.05562104,0.04916430,0.05628050,0.04143191,0.03308293,0.03382527,0.02687889,0.02171100,0.02271122,0.02130533,0.02842899,0.03559396,0.02916852,0.03273042,0.03828252,0.03725198,0.05602286,0.05808916,0.06262772,0.07838711,0.08000946,0.08275465,0.08241952,0.08390495,0.06199005,0.05933626,0.07412180,0.06040441,0.08643217,0.08516073,0.09699231,0.11283369,0.12489212,0.13642640,0.13154819,0.13596823,0.12827967,0.11803958,0.11109594,0.09692467,0.08645374,0.06905438,0.06665825,0.05751497,0.06572213,0.04076624,0.05242139,0.04934463,0.05944626,0.05524504,0.06037604,0.06299596,0.05732074,0.05891487,0.05524057,0.05518976,0.06504257,0.06015000,0.06746597,0.06425462,0.06776097,0.06454907,0.06396930,0.06996574,0.07160454,0.08333377,0.09959101,0.10526613,0.12337262,0.15140785,0.15668183,0.15793286,0.15849319,0.16310145,0.15355494,0.17461087,0.19347245,0.20238441,0.23167948,0.27867699,0.30770481,0.31445939,0.37034403,0.38838485,0.39732488,0.41271382,0.44278974,0.45907749,0.47433394,0.49056541,0.49697449,0.48457032,0.49995258,0.47614545,0.44536659,0.40878762,0.38808751,0.33740152,0.28325508,0.23137044,0.22275481,0.18892406,0.18644026,0.17988611,0.18490781,0.18605192,0.19212160,0.19590369,0.19914823,0.18821618,0.19698715,0.17826883,0.16720328,0.14811775,0.15409120,0.13658418,0.14525629,0.13268157,0.15352881,0.15269431,0.15968304,0.17473449,0.18944594,0.21368580,0.23163225,0.25846950,0.27552316,0.30053355,0.30283513,0.32860749,0.34752391,0.34053128,0.34120882,0.32267643,0.35023791,0.31341664,0.32542548,0.30152605,0.29224682,0.27822818,0.25841555,0.23785278,0.24396308,0.22828775,0.22165200,0.23337498,0.24388461,0.24505301,0.24412927,0.25112729,0.24205640,0.21465676,0.19921393,0.17834174,0.17679751,0.14882444,0.14306001,0.13145120,0.14229244,0.13006823,0.14085618,0.12393502,0.13744005,0.13021172,0.14057537,0.14922752,0.13197443,0.13669543,0.14755092,0.15038696,0.15839662,0.16496350,0.17557896,0.18670644,0.20899298,0.20884025,0.23087485,0.23302327,0.24461446,0.24697437,0.23662862,0.25944409,0.25913386,0.25882403,0.23242807,0.24473652,0.22431635,0.22347552,0.20817928,0.20982561,0.22132280,0.23440698,0.24845200,0.24996612,0.26860926,0.30310339,0.30702101,0.35561053,0.40817415,0.42043952,0.45317129,0.48558754,0.51971571,0.55765245,0.58365857,0.59325072,0.63567934,0.66285875,0.66936485,0.65033800,0.67463289,0.63783096,0.61909607,0.61190534,0.57131962,0.55808245,0.48986317,0.48655308,0.42605477,0.40699386,0.37531418,0.36250207,0.35613786,0.36333770,0.37457062,0.37926840,0.36779193,0.37631920,0.40920656,0.39051292,0.37034766,0.35846806,0.36017731,0.32594561,0.30604756,0.28272915,0.26015507,0.27469380,0.27527186,0.28603655,0.28652423,0.30916194,0.35368528,0.38261559,0.41427383,0.48403102,0.51497466,0.56488472,0.58920116,0.61801559,0.60683356,0.62491318,0.62014870,0.62075665,0.60375911,0.57683686,0.54659395,0.51381942,0.51623138,0.49882681,0.47090619,0.46704920,0.44976939,0.40805126,0.38779365,0.35641989,0.30841583,0.28112758,0.26021851,0.23479331,0.22224422,0.20496619,0.20687818,0.20466427,0.20820328,0.21011381,0.18589499,0.19422619,0.20491583,0.20574379,0.21302918,0.22026182,0.19226584,0.21617055,0.22153619,0.22994170,0.20603167,0.22427914,0.22265981,0.22499298,0.22727721,0.22602641,0.23258760
0.01338265,0.02623386,0.02043275,0.02289079,0.02241653,0.02269474,0.02225771,0.02330091,0.02129573,0.02786823,0.02728741,0.02807775,0.02031058,0.02264893,0.02671405,0.02119622,0.01435708,0.02822975,0.01622715,0.01839526,0.01461140,0.01260629,0.01587552,0.02625202,0.03640872,0.03309386,0.03637222,0.03273142,0.04155202,0.04001289,0.04981338,0.03567096,0.04341907,0.04291569,0.05269788,0.07663602,0.10041703,0.12489715,0.14663704,0.15844791,0.19325693,0.20256392,0.21642045,0.20828365,0.18352353,0.16603536,0.14015233,0.11363620,0.07910862,0.06723692,0.05018994,0.04271402,0.03895336,0.03046328,0.03075764,0.03012092,0.04550816,0.03553240,0.03941817,0.03207003,0.03997690,0.01981759,0.04369698,0.04103680,0.03444547,0.03682444,0.02893364,0.03310929,0.04141832,0.04571306,0.05409803,0.06008719,0.06606881,0.09222451,0.10846172,0.13365195,0.16443102,0.17883024,0.19510329,0.18528528,0.17240199,0.15366653,0.14160365,0.13940042,0.14517443,0.14094413,0.16010995,0.17968071,0.19514645,0.23027498,0.24333765,0.28394841,0.31870542,0.34275526,0.36135391,0.38807617,0.41011036,0.43558029,0.43883467,0.40592897,0.37124262,0.35348046,0.30174361,0.26269499,0.21699922,0.17940374,0.14726883,0.13038375,0.11448729,0.07916909,0.07718855,0.10347790,0.08865865,0.08576759,0.09996025,0.10209990,0.09417669,0.07898554,0.09657349,0.09717140,0.09450276,0.07876427,0.07472286,0.06874757,0.07690279,0.06047047,0.07327683,0.07915965,0.08258706,0.07887633,0.10082272,0.11321467,0.12975264,0.13922392,0.16426468,0.17994096,0.20269852,0.23318812,0.24728863,0.28516150,0.29566151,0.32777766,0.35758577,0.35342596,0.36349617,0.35671135,0.33439301,0.30355492,0.29584484,0.27165218,0.26368844,0.27177546,0.25479439,0.27551819,0.29236176,0.28118251,0.29415397,0.28166840,0.24119782,0.22278257,0.17926403,0.14545120,0.12230956,0.10765000,0.09705977,0.07246092,0.08144129,0.07639681,0.07937061,0.08323376,0.07519359,0.08261649,0.07201119,0.07947214,0.09708132,0.07502825,0.09389747,0.09541561,0.09850421,0.11267321,0.12536161,0.12680187,0.14202563,0.14193319,0.16129154,0.16910831,0.16697520,0.16052374,0.16322284,0.18170500,0.16591696,0.17180142,0.16085424,0.14634705,0.13264305,0.13814373,0.14588142,0.12834846,0.13350683,0.12662494,0.13465858,0.13168572,0.14842573,0.15957503,0.18737633,0.19101985,0.20918248,0.23939592,0.26904975,0.29291288,0.32454790,0.37452758,0.42715319,0.45171500,0.49357215,0.50159404,0.53671029,0.52580386,0.52645958,0.52256304,0.50848181,0.47605332,0.44018546,0.38764592,0.36341306,0.32850993,0.28590580,0.24115684,0.20936980,0.18986574,0.19344430,0.17755436,0.17318055,0.18295321,0.19084366,0.16184210,0.17652244,0.16770176,0.17364537,0.15350725,0.14939387,0.14630153,0.13586245,0.14077530,0.13949929,0.14878436,0.17007659,0.18859148,0.21392657,0.24997599,0.28322833,0.34955589,0.37761921,0.42723954,0.47332489,0.51846900,0.54655756,0.57771564,0.58710798,0.61111593,0.61731351,0.60694299,0.59164993,0.60729725,0.60054609,0.61652792,0.62084805,0.61922279,0.60221672,0.55546607,0.53831794,0.48179751,0.42864203,0.35971630,0.28262444,0.23647616,0.20547650,0.17234120,0.15901026,0.13892721,0.13028722,0.11896307,0.12982851,0.12000454,0.12734184,0.13960047,0.12813001,0.13266485,0.13136527,0.14577908,0.14099181,0.14414188,0.14877608,0.14320958,0.14544942,0.14814531,0.14310040,0.14353384,0.14707430,0.16279547,0.15354423
0.02076457,0.02335695,0.01070635,0.01590609,0.02212490,0.02245893,0.01618086,0.01892099,0.03102080,0.02218067,0.01292866,0.00577668,-0.00026177,0.00058255,-0.00436202,0.00108670,-0.00897345,-0.00322079,0.00114576,0.00124581,-0.00171417,0.00376270,0.01260340,0.00731910,0.01476907,0.03043493,0.03526247,0.03731640,0.04045676,0.03542653,0.04710611,0.03353606,0.02938124,0.03696372,0.03846151,0.04716620,0.06192964,0.10307073,0.12042511,0.15619475,0.17830923,0.17639654,0.17849821,0.17406326,0.16272228,0.15947449,0.12211092,0.09650486,0.07190779,0.05547343,0.05500549,0.03306047,0.03565866,0.01963877,0.02177038,0.01940277,0.02441727,0.01079343,0.01319451,0.01944268,0.02075198,0.01160181,0.02014906,0.01880202,0.02325480,0.02632935,0.02719390,0.02715318,0.02675254,0.03007117,0.03682970,0.03594929,0.04427176,0.07255511,0.09719933,0.11357227,0.14479592,0.16476951,0.19310352,0.18900797,0.18661411,0.17721003,0.16442465,0.16989162,0.17930896,0.20746001,0.24006922,0.25058061,0.30070477,0.30292404,0.33874623,0.37571789,0.37206302,0.39248197,0.38767572,0.39569734,0.39187976,0.39471137,0.40078019,0.39515160,0.37776272,0.36239965,0.32994600,0.29930402,0.26619355,0.21333794,0.18313267,0.15307500,0.12444478,0.10717815,0.08669200,0.08413335,0.08853280,0.09277004,0.08534876,0.09551426,0.08763382,0.08622292,0.08100845,0.08613838,0.07913278,0.07886719,0.06153036,0.06344389,0.06579683,0.06878383,0.08540935,0.09535377,0.09569862,0.10857112,0.12051137,0.14257989,0.16407443,0.18794336,0.19918358,0.23825992,0.25815291,0.28088266,0.31122747,0.34107665,0.35066957,0.33855054,0.37517231,0.36176744,0.37509376,0.34189172,0.33695649,0.31426143,0.28341747,0.26946185,0.24182168,0.23541726,0.21211567,0.21617510,0.21464689,0.20357547,0.20334956,0.20490248,0.18953217,0.15951522,0.13962152,0.11891017,0.10478218,0.09602372,0.09008534,0.08212324,0.07562934,0.08113217,0.07676812,0.08448118,0.07948077,0.08230466,0.09037918,0.08861758,0.09738262,0.11110953,0.11044003,0.13487801,0.15934066,0.17934984,0.18820573,0.21539956,0.24271455,0.27320544,0.27448627,0.30364829,0.31321360,0.32908231,0.33548083,0.31558989,0.31852544,0.31477844,0.28667514,0.28222287,0.24843056,0.23072186,0.20864520,0.20268203,0.19725666,0.19504676,0.17824030,0.18441682,0.19525375,0.21522950,0.23118496,0.27063201,0.28007799,0.29363866,0.33132461,0.36536633,0.39285350,0.40705761,0.42104375,0.45291706,0.45817947,0.47754134,0.46163446,0.48813629,0.46872874,0.45016779,0.41968580,0.39237309,0.37023160,0.33762922,0.32377389,0.29556503,0.27570837,0.22722548,0.24124778,0.23578707,0.23079268,0.24033017,0.23920202,0.25107133,0.26938795,0.25676882,0.27290753,0.25690738,0.25478767,0.24969421,0.21903077,0.21582627,0.19456893,0.18518656,0.17637072,0.16433975,0.17328194,0.17587843,0.20085018,0.20835005,0.25169610,0.28577549,0.31413913,0.36414446,0.39151296,0.43810653,0.46422128,0.51559096,0.52984374,0.56062371,0.60286231,0.57977617,0.59915711,0.57552790,0.55226141,0.53286725,0.55025586,0.54822933,0.51589465,0.50578514,0.45463798,0.43356563,0.37582107,0.31998313,0.27763452,0.24108720,0.19554543,0.18019575,0.16147118,0.15289569,0.15491738,0.15279373,0.15111577,0.15781295,0.13587412,0.17076365,0.15852503,0.16775833,0.15556145,0.16634571,0.16895664,0.18336802,0.18086561,0.18602311,0.20112543,0.19332624,0.19450848,0.20760217,0.21081092,0.21367282,0.20627029
0.00212854,0.01120401,0.01157888,0.00366959,0.01315748,0.00837601,0.00511753,0.01216463,0.00845330,0.01206035,0.00065004,0.00405260,0.00058815,0.00599041,-0.00069430,0.00011753,-0.00259436,-0.00091241,-0.00527038,0.00435794,0.00551494,0.00618005,0.01660432,0.01332696,0.01681715,0.01316417,0.01841832,0.02302449,0.02066573,0.02300201,0.01377557,0.01297826,0.02043343,0.01857587,0.02681466,0.03078104,0.03482483,0.06110071,0.07335121,0.07295850,0.09099723,0.09121403,0.08719081,0.09617838,0.08344659,0.07271012,0.06970993,0.05185873,0.04875802,0.03803222,0.03106927,0.03292843,0.02608680,0.02770138,0.01576497,0.03225706,0.02544212,0.01472826,0.01683652,0.02397408,0.02218711,0.02969038,0.01987505,0.03087806,0.03439726,0.02397679,0.01863213,0.02744244,0.01745174,0.03365996,0.03578574,0.03703767,0.04492588,0.05763877,0.06618598,0.08199105,0.10498081,0.11562314,0.12730441,0.13441887,0.14151606,0.14321824,0.16305662,0.18562416,0.22653904,0.25845345,0.31525060,0.35869437,0.40249460,0.47148157,0.47294617,0.49972708,0.51360441,0.49804451,0.47627860,0.46299073,0.44979785,0.41705167,0.38969415,0.35002062,0.30649233,0.26574403,0.24691490,0.20842959,0.17561714,0.13855964,0.13651958,0.12496029,0.11573202,0.12061323,0.13674970,0.14787526,0.15666269,0.18204974,0.20407410,0.21719863,0.21353548,0.20602980,0.19707945,0.18681059,0.14764640,0.12860457,0.10802880,0.09396197,0.07695884,0.08694404,0.07042745,0.06943566,0.07259305,0.06782656,0.08565897,0.09346852,0.11310255,0.10669792,0.12570440,0.12966394,0.13486973,0.15353618,0.16286161,0.17465730,0.19638739,0.19994770,0.20085461,0.19876349,0.19791218,0.20481559,0.18001938,0.18479908,0.16962062,0.15470544,0.15646667,0.16665167,0.15800356,0.17593073,0.17592985,0.18192405,0.17285879,0.16322404,0.15293479,0.14855945,0.11988171,0.10611773,0.09200154,0.08426241,0.08739659,0.06981085,0.07552326,0.06763209,0.06366956,0.07052775,0.08890916,0.08507714,0.07856427,0.08859290,0.09385054,0.10231148,0.11089231,0.13156393,0.13937469,0.14906282,0.16688432,0.18889012,0.21088142,0.21635312,0.23480251,0.24010978,0.25370176,0.25936943,0.25419118,0.26045127,0.24719502,0.24126531,0.21972153,0.20506429,0.19275976,0.17586928,0.16090948,0.16776829,0.16265502,0.15391243,0.14756708,0.14644060,0.14961731,0.16576899,0.16741628,0.18075728,0.22428323,0.23844803,0.25686543,0.31819911,0.34188062,0.37961787,0.42259216,0.46814586,0.51862185,0.56802022,0.58274499,0.60894322,0.61861429,0.61496795,0.59786359,0.56858818,0.54537868,0.51577368,0.44979262,0.41900529,0.36930605,0.32795217,0.30571681,0.26812490,0.24225327,0.22047281,0.20729440,0.19449719,0.18607039,0.17710835,0.17314366,0.17160567,0.17242868,0.16438205,0.14476991,0.16406959,0.17116920,0.16332623,0.18822684,0.20549150,0.22159390,0.25321024,0.28706452,0.32501661,0.37146988,0.42449465,0.44860256,0.47971315,0.50681465,0.52054446,0.52572230,0.52661574,0.50385745,0.48430848,0.44613524,0.42974207,0.42563547,0.41308395,0.40860081,0.37004916,0.36652226,0.37452290,0.35863062,0.35383549,0.31411729,0.28066786,0.25798799,0.22543300,0.20173950,0.16378760,0.15958519,0.15294843,0.12557173,0.13086350,0.13298170,0.14831656,0.13233369,0.13888280,0.13604143,0.14330881,0.15161001,0.15282879,0.15159744,0.16277091,0.14601572,0.17023275,0.16930712,0.17965266,0.17131490,0.17100099,0.19591931,0.16983815,0.17883422,0.17053780,0.17522677
-0.02534076,-0.01854849,-0.01744541,-0.00711839,-0.00887700,0.00211174,-0.00741389,-0.00431694,-0.00088076,-0.01180384,-0.01843534,-0.01339961,-0.02289433,-0.01729567,-0.02655698,-0.03242687,-0.02916369,-0.02462505,-0.01668274,-0.02311119,-0.01703965,-0.01743457,-0.01438088,-0.01607919,-0.01022547,0.00361063,0.00827346,0.02054978,0.01132396,0.01918345,0.01137627,0.01841979,0.01274346,0.01187530,0.01709418,0.02218540,0.04096333,0.07122327,0.09258983,0.10206117,0.12406655,0.13931794,0.14276503,0.15116160,0.14285731,0.11758092,0.09558762,0.07696756,0.04964880,0.04064675,0.02409223,0.01419050,0.00232491,-0.00106087,0.00405877,-0.00374816,-0.00008180,-0.00508424,-0.00453194,-0.00647432,-0.00952336,-0.00087743,0.00035956,-0.00203395,-0.00047052,-0.00086788,-0.00118866,0.00608153,-0.00439306,0.00222618,0.00873814,0.01671641,0.00960170,0.03835126,0.04829145,0.08295969,0.10356215,0.12513720,0.14251951,0.15168062,0.14531711,0.13427668,0.12699536,0.11808998,0.14397553,0.16301377,0.19457938,0.22596062,0.25666735,0.31771955,0.32597165,0.37599171,0.37631667,0.39213654,0.40226882,0.39069753,0.38256941,0.37414747,0.37252740,0.35363356,0.31581834,0.29104393,0.27428110,0.24712895,0.22567674,0.19051472,0.16282901,0.12783573,0.11218144,0.11446316,0.11291988,0.12820306,0.15261912,0.17299728,0.18054699,0.21811789,0.20470488,0.20604970,0.19149549,0.18018299,0.15249765,0.11564405,0.09747808,0.09083801,0.07490412,0.07053879,0.05648259,0.07102888,0.06088198,0.07010789,0.08660835,0.09973354,0.12162590,0.15715269,0.17241635,0.19614019,0.21832800,0.23009325,0.27030029,0.28210875,0.30515800,0.30334855,0.33169359,0.32300003,0.32447629,0.32240067,0.29747646,0.26395906,0.24952674,0.21802658,0.20614096,0.17865283,0.16553424,0.15781786,0.13949825,0.13942296,0.12973239,0.12033685,0.10847514,0.10036522,0.09048694,0.09012589,0.05956465,0.05620604,0.05052568,0.04733867,0.04476652,0.04565555,0.04977096,0.04976910,0.04481294,0.04101692,0.05205029,0.04295215,0.05292386,0.05372959,0.06018902,0.05603733,0.06450927,0.07162396,0.07161911,0.07331688,0.08103323,0.06645905,0.07849853,0.08471275,0.09511543,0.08663415,0.10205232,0.09899777,0.09560121,0.09167363,0.10484397,0.09227130,0.08744585,0.09417497,0.08861321,0.09791135,0.09339769,0.09873365,0.11439113,0.12912317,0.13406166,0.15775026,0.17744817,0.20343111,0.24020514,0.26585650,0.29922391,0.32128024,0.35905313,0.39532178,0.43687327,0.48533065,0.50958668,0.53936888,0.57764677,0.60006162,0.59657074,0.62530618,0.57697612,0.56984114,0.54998108,0.51439721,0.48177251,0.42370776,0.37991493,0.35073989,0.31584577,0.28927590,0.26507117,0.26555104,0.25823408,0.25818660,0.24297016,0.25632501,0.23391392,0.22293356,0.22808665,0.20811710,0.19593977,0.17037245,0.19434071,0.17189939,0.17142303,0.17535000,0.18518683,0.21733990,0.22388746,0.25951307,0.30345963,0.33966633,0.40578597,0.42729800,0.47493576,0.49450064,0.50599319,0.53335118,0.54046535,0.57128093,0.56279906,0.54183445,0.53697086,0.51952994,0.47479684,0.46684686,0.44159734,0.42424213,0.42040548,0.38385341,0.36634091,0.33281460,0.31255621,0.26964431,0.23003867,0.19497552,0.16853244,0.14046481,0.12637345,0.10770086,0.09958867,0.09143985,0.10306558,0.09108014,0.10213554,0.09661388,0.09610868,0.09713188,0.09651026,0.10203424,0.09429707,0.10472180,0.09340605,0.09949236,0.09433461,0.09623579,0.09898586,0.09673100,0.10201413,0.10713017,0.11606531
