1000,1005,1010,1015,1020,1025,1030,1035,1040,1045,1050,1055,1060,1065,1070,1075,1080,1085,1090,1095,1100,1105,1110,1115,1120,1125,1130,1135,1140,1145,1150,1155,1160,1165,1170,1175,1180,1185,1190,1195,1200,1205,1210,1215,1220,1225,1230,1235,1240,1245,1250,1255,1260,1265,1270,1275,1280,1285,1290,1295,1300,1305,1310,1315,1320,1325,1330,1335,1340,1345,1350,1355,1360,1365,1370,1375,1380,1385,1390,1395,1400,1405,1410,1415,1420,1425,1430,1435,1440,1445,1450,1455,1460,1465,1470,1475,1480,1485,1490,1495,1500,1505,1510,1515,1520,1525,1530,1535,1540,1545,1550,1555,1560,1565,1570,1575,1580,1585,1590,1595,1600,1605,1610,1615,1620,1625,1630,1635,1640,1645,1650,1655,1660,1665,1670,1675,1680,1685,1690,1695,1700,1705,1710,1715,1720,1725,1730,1735,1740,1745,1750,1755,1760,1765,1770,1775,1780,1785,1790,1795,1800,1805,1810,1815,1820,1825,1830,1835,1840,1845,1850,1855,1860,1865,1870,1875,1880,1885,1890,1895,1900,1905,1910,1915,1920,1925,1930,1935,1940,1945,1950,1955,1960,1965,1970,1975,1980,1985,1990,1995,2000,2005,2010,2015,2020,2025,2030,2035,2040,2045,2050,2055,2060,2065,2070,2075,2080,2085,2090,2095,2100,2105,2110,2115,2120,2125,2130,2135,2140,2145,2150,2155,2160,2165,2170,2175,2180,2185,2190,2195,2200,2205,2210,2215,2220,2225,2230,2235,2240,2245,2250,2255,2260,2265,2270,2275,2280,2285,2290,2295,2300,2305,2310,2315,2320,2325,2330,2335,2340,2345,2350,2355,2360,2365,2370,2375,2380,2385,2390,2395,2400,2405,2410,2415,2420,2425,2430,2435,2440,2445,2450,2455,2460,2465,2470,2475,2480,2485,2490,2495,2500
49.06989474,49.29805128,49.59873684,49.84421053,49.98476923,50.10294737,50.18230769,50.20305263,50.27115789,50.30184615,50.33784211,50.36757895,50.37889474,50.36384615,50.348,50.32147368,50.29126316,50.27305263,50.21126316,50.16641026,50.07773684,49.98421053,49.895,49.76663158,49.65115789,49.44784211,49.12336842,48.636,48.00757895,47.34836842,46.81536842,46.44947368,46.28894737,46.20331579,46.15252632,46.09410526,46.03978947,45.98252632,45.934,45.95291892,45.96626316,46.001,46.06259459,46.11947368,46.16947368,46.24616216,46.30442105,46.33118919,46.36157895,46.40156757,46.426,46.42384211,46.40652632,46.37924324,46.33247368,46.24989474,46.078,45.93691892,45.76016216,45.55315789,45.27648649,44.95968421,44.55789189,44.09626316,43.57305263,42.94172973,42.25702703,41.56989189,40.90027027,40.24368421,39.60556757,38.98326316,38.32918919,37.45664865,36.29405263,34.70416216,32.45297297,29.59783784,26.48789474,23.29524324,20.50913514,18.28978378,16.73756757,15.67675676,14.96284211,14.54672222,14.302,14.18033333,14.15705263,14.192,14.26762162,14.40718919,14.64021622,15.01821622,15.52794595,16.13918919,16.8225,17.55691892,18.29908108,19.096,19.89437838,20.69378378,21.49083333,22.27789189,23.02518919,23.803,24.5392973,25.25810811,25.93410811,26.58905556,27.20866667,27.80091892,28.36616216,28.868,29.37610811,29.8492973,30.28755556,30.68713514,31.07686486,31.444,31.78432432,32.09,32.40933333,32.66005405,32.90155556,33.15933333,33.34216667,33.51161111,33.71133333,33.88837838,33.99,34.07644444,34.15722222,34.236,34.18244444,34.12688889,34.02433333,33.89822222,33.77266667,33.64133333,33.46833333,33.28533333,33.126,32.91866667,32.66722222,32.38874286,32.11616667,31.76266667,31.39862857,30.98644444,30.57933333,30.16616667,29.746,29.34954286,28.99944444,28.69662857,28.47971429,28.327,28.23645714,28.18685714,28.15544444,28.1395,28.1164,28.07033333,27.97451429,27.87044444,27.6636,27.33133333,26.88794286,26.222,25.3135,24.02942857,22.358,20.3316,17.74845714,14.89988571,12.1056,9.633142857,7.736685714,6.493257143,5.780516129,4.818740741,4.073037037,3.657555556,3.442444444,3.320307692,3.263259259,3.270888889,3.307925926,3.385111111,3.493259259,3.629481481,3.791,3.989538462,4.206461538,4.452814815,4.718307692,5.022,5.347230769,5.690230769,6.059615385,6.426153846,6.801153846,7.172,7.549230769,7.922230769,8.323538462,8.715692308,9.106692308,9.48304,9.836769231,10.214,10.55630769,10.942,11.31288,11.68952,12.094,12.46830769,12.8668,13.24032,13.61832,14.05768,14.44046154,14.82184,15.24224,15.56144,15.82456,16.10512,16.3296,16.53025,16.7828,16.95376,17.16504,17.32544,17.42432,17.5708,17.568,17.64775,17.758,17.86,17.8832,17.99141667,17.9885,18.03272,18.043,18,17.94533333,17.8275,17.67875,17.47825,17.15513043,16.89133333,16.51356522,16.17452174,15.903,15.59725,15.265,15.05191304,14.84366667,14.53973913,14.27347826,14.00608696,13.70556522,13.53608696,13.314,12.9373913,12.5746087,12.30895652,11.90826087,11.67234783,11.43173913,11.24469565,11.14713043,11.04454545,10.98090909,10.86672727,10.43763636,9.90773913,9.454521739,9.072,8.759363636,8.45,8.152,7.948,7.681818182,7.5,7.368857143,7.208181818,7.025818182,6.774727273,6.584363636,6.294952381,6.019090909,5.853363636,5.644181818,5.475,5.322,5.089090909,5.101714286,4.948090909,4.99952381
40.82789474,40.98689474,41.21342105,41.37763158,41.48026316,41.57194737,41.67073684,41.69836842,41.75678947,41.78463158,41.81152632,41.82989474,41.84015789,41.835,41.84126316,41.83610526,41.79115789,41.76864865,41.70010526,41.70705263,41.65515789,41.58810526,41.53115789,41.43178947,41.37547368,41.23547368,41.02757895,40.71478947,40.28394737,39.79886486,39.39357895,39.05431579,38.93589474,38.84102703,38.77557895,38.71878947,38.66254054,38.60442105,38.54336842,38.56243243,38.57147368,38.59237838,38.63294737,38.66497297,38.696,38.75789474,38.79821053,38.81194595,38.83847368,38.8727027,38.89568421,38.90848649,38.89610811,38.87357895,38.83831579,38.78389474,38.66448649,38.57221053,38.46264865,38.31705263,38.11437838,37.87994595,37.60094737,37.28362162,36.91926316,36.45702703,35.96089474,35.43962162,34.948,34.45473684,33.99102703,33.53873684,33.07691892,32.44394595,31.62473684,30.49459459,28.84275676,26.63562162,24.09210811,21.41821622,18.92735135,16.85340541,15.32832432,14.24859459,13.48740541,13.00762162,12.69567568,12.51318919,12.41956757,12.3932973,12.42048649,12.50286486,12.66497297,12.94697297,13.35454054,13.86183333,14.43962162,15.0527027,15.68524324,16.37066667,17.04832432,17.74222222,18.43562162,19.10632432,19.77145946,20.42437838,21.06466667,21.67113514,22.24988889,22.80513514,23.35091892,23.84988889,24.33216667,24.75691892,25.198,25.59610811,25.9715,26.3167027,26.632,26.94324324,27.2365,27.47344444,27.75437838,27.95466667,28.16522222,28.38545946,28.52877778,28.674,28.84183333,28.98644444,29.08666667,29.14494444,29.21855556,29.28016667,29.25461111,29.2085,29.137,29.03872222,28.93565714,28.824,28.689,28.556,28.40805714,28.26094444,28.08628571,27.851,27.63211429,27.37027778,27.08877778,26.7488,26.40361111,26.11611429,25.76365714,25.41982857,25.143,24.88262857,24.74866667,24.62794286,24.5568,24.5255,24.492,24.48857143,24.493,24.48422857,24.40937143,24.31794286,24.16182857,23.92502857,23.5476,22.99611429,22.24182857,21.15035294,19.74485714,17.89628571,15.58988571,12.96771429,10.39914286,8.0828,6.337314286,5.206457143,4.554,3.659384615,3.063481481,2.739307692,2.572814815,2.484,2.426,2.423333333,2.444,2.498307692,2.578444444,2.675333333,2.796923077,2.950153846,3.131777778,3.333384615,3.558923077,3.806740741,4.080769231,4.383153846,4.704,5.019076923,5.348307692,5.689230769,6.021692308,6.361846154,6.721692308,7.08496,7.422,7.76888,8.100153846,8.431230769,8.761076923,9.112615385,9.468,9.81208,10.19461538,10.55416,10.91512,11.2764,11.61792,12.02904,12.3632,12.708,13.06825,13.37776,13.61584,13.83008,14.04,14.22992,14.44024,14.5835,14.768,14.8888,14.97928,15.09376,15.122,15.2,15.31241667,15.41464,15.44,15.511,15.53304,15.55825,15.56558333,15.51583333,15.46,15.345,15.20866667,14.9995,14.70566667,14.48226087,14.13,13.84325,13.573,13.31475,13.028,12.85,12.66225,12.37173913,12.12365217,11.87782609,11.61113043,11.47591304,11.25982609,10.90843478,10.59295652,10.34704348,10.00052174,9.769454545,9.578695652,9.419043478,9.319636364,9.229304348,9.111391304,8.966695652,8.521217391,8.099454545,7.725818182,7.386,7.109913043,6.851,6.611272727,6.396,6.182,6.059090909,5.873818182,5.732181818,5.595909091,5.347909091,5.146363636,4.886,4.699181818,4.494190476,4.325272727,4.204727273,4.065363636,3.920285714,3.925090909,3.769047619,3.858190476
40.00767544,40.18280702,40.31850877,40.48197368,40.5675,40.64486842,40.71324561,40.74570175,40.80666667,40.8345614,40.86276316,40.87513158,40.8904386,40.8875,40.89135965,40.89662281,40.8670614,40.84554054,40.77842105,40.78561404,40.74798246,40.69192982,40.64885965,40.56587719,40.5079386,40.38662281,40.19692982,39.92100877,39.54627193,39.10828829,38.73929825,38.42763158,38.31578947,38.23099099,38.16337719,38.1127193,38.06509009,38.00631579,37.94403509,37.96644144,37.975,37.98954955,38.02298246,38.0590991,38.09083333,38.14671053,38.1822807,38.20576577,38.23008772,38.26202703,38.28052632,38.29342342,38.28720721,38.26973684,38.22807018,38.18403509,38.07337838,37.98885965,37.89153153,37.7627193,37.58355856,37.36936937,37.1145614,36.83324324,36.49824561,36.07216216,35.60675439,35.12621622,34.67373874,34.22061404,33.78725225,33.36307018,32.9336036,32.35761261,31.61096491,30.57247748,29.04905405,27.00626126,24.62923423,22.10391892,19.72810811,17.73783784,16.26306306,15.21576577,14.47477477,14.01333333,13.71648649,13.54378378,13.4581982,13.43833333,13.46463964,13.54391892,13.69531532,13.96085586,14.34013514,14.81333333,15.35684685,15.93063063,16.51981982,17.16333333,17.79540541,18.44453704,19.08891892,19.71445946,20.32513514,20.94013514,21.53425926,22.09315315,22.63268519,23.145,23.64923423,24.11277778,24.55583333,24.94954955,25.35972222,25.73108108,26.07513889,26.39283784,26.68833333,26.97274775,27.23861111,27.46074074,27.7231982,27.91407407,28.10009259,28.30567568,28.43412037,28.56458333,28.7174537,28.84546296,28.92597222,28.97513889,29.0387963,29.09222222,29.05638889,29.00847222,28.93458333,28.83861111,28.73947619,28.64055556,28.51972222,28.3762963,28.22747619,28.07013889,27.89333333,27.665,27.46257143,27.2312963,26.98018519,26.67985714,26.3712963,26.11447619,25.78714286,25.48761905,25.2525,25.025,24.91222222,24.79419048,24.72342857,24.69458333,24.65333333,24.64857143,24.65444444,24.64890476,24.58166667,24.514,24.37380952,24.14990476,23.81566667,23.32161905,22.63695238,21.63352941,20.34,18.64666667,16.52857143,14.10552381,11.71447619,9.527857143,7.844238095,6.715380952,6.169114583,5.281794872,4.64691358,4.282628205,4.077037037,3.968333333,3.902222222,3.887962963,3.895,3.958205128,4.046111111,4.166666667,4.305384615,4.476923077,4.680987654,4.896410256,5.128589744,5.383395062,5.670192308,5.970833333,6.281666667,6.586217949,6.909935897,7.235641026,7.548205128,7.865384615,8.204615385,8.531466667,8.843333333,9.156866667,9.448782051,9.746410256,10.03301282,10.34987179,10.67973333,10.98846667,11.33358974,11.65646667,11.97993333,12.3072,12.6098,12.98713333,13.289,13.59433333,13.92916667,14.20046667,14.40486667,14.587,14.77277778,14.94626667,15.1316,15.2475,15.41033333,15.506,15.59133333,15.69133333,15.71354167,15.78333333,15.88909722,15.9824,15.99555556,16.09541667,16.1106,16.140625,16.1675,16.11381944,16.04666667,15.93583333,15.79833333,15.60875,15.31729167,15.09702899,14.78958333,14.509375,14.28833333,14.06020833,13.81708333,13.65229167,13.49423611,13.2042029,12.97188406,12.74847826,12.49710145,12.38891304,12.21804348,11.89376812,11.57130435,11.35652174,11.02528986,10.84045455,10.67347826,10.52847826,10.44515152,10.3715942,10.27253623,10.13036232,9.753043478,9.302727273,8.943863636,8.658333333,8.385434783,8.156666667,7.91530303,7.748333333,7.488181818,7.377424242,7.216515152,7.111666667,6.933939394,6.694545455,6.543939394,6.247878788,6.083409091,5.91484127,5.718484848,5.602727273,5.483030303,5.333253968,5.285606061,5.177222222,5.276031746
43.13778947,43.28757895,43.46305263,43.61568421,43.71042105,43.80957895,43.87921053,43.89078947,43.95078947,43.98757895,44.01642105,44.02694737,44.03326316,44.03,44.03,44.01968421,43.98426316,43.97005405,43.90010526,43.90621053,43.85021053,43.79031579,43.73642105,43.63852632,43.57536842,43.42942105,43.21231579,42.89873684,42.48168421,42.0132973,41.64589474,41.33863158,41.23905263,41.15237838,41.08110526,41.01284211,40.94854054,40.88094737,40.82305263,40.83297297,40.83289474,40.84237838,40.88126316,40.89897297,40.93,40.99026316,41.02021053,41.032,41.05810526,41.0887027,41.11073684,41.116,41.09691892,41.08052632,41.04,40.98563158,40.86172973,40.76778947,40.65118919,40.50810526,40.30113514,40.07621622,39.79705263,39.48248649,39.11789474,38.66389189,38.18105263,37.67518919,37.21124324,36.73684211,36.29216216,35.84894737,35.39437838,34.77081081,33.95363158,32.81545946,31.14427027,28.94632432,26.45172973,23.85859459,21.46210811,19.46989189,17.99016216,16.9252973,16.14908108,15.65308108,15.31762162,15.11189189,14.99751351,14.95232432,14.96194595,15.03989189,15.20432432,15.49621622,15.9027027,16.41,16.98745946,17.59221622,18.21740541,18.89866667,19.5667027,20.24966667,20.92843243,21.58448649,22.21843243,22.86610811,23.48066667,24.06372973,24.62455556,25.15372973,25.676,26.15144444,26.617,27.02524324,27.44366667,27.82664865,28.17783333,28.50145946,28.802,29.10383784,29.38066667,29.61661111,29.88767568,30.08444444,30.28233333,30.50335135,30.63805556,30.7835,30.951,31.0915,31.18533333,31.24694444,31.32194444,31.40033333,31.38038889,31.34538889,31.28,31.19583333,31.09948571,30.98466667,30.84966667,30.71755556,30.57308571,30.42933333,30.27257143,30.05133333,29.85148571,29.59555556,29.309,28.97554286,28.63533333,28.35611429,28.00914286,27.68451429,27.416,27.16028571,27.04133333,26.93782857,26.88417143,26.86533333,26.842,26.85057143,26.85333333,26.84371429,26.77011429,26.69108571,26.54382857,26.30702857,25.9528,25.42371429,24.69337143,23.60917647,22.22028571,20.40142857,18.09742857,15.4524,12.82554286,10.38634286,8.467657143,7.152114286,6.521875,5.473230769,4.680888889,4.223153846,3.963851852,3.828,3.750888889,3.740222222,3.763333333,3.842923077,3.954444444,4.094666667,4.262461538,4.471384615,4.703185185,4.967230769,5.249230769,5.55,5.892230769,6.247307692,6.616,6.981461538,7.361307692,7.745076923,8.108769231,8.489692308,8.879307692,9.27344,9.642,10.01424,10.36476923,10.718,11.05553846,11.40861538,11.77456,12.11232,12.49676923,12.85552,13.21952,13.59224,13.93648,14.36016,14.7128,15.074,15.466,15.78512,16.0484,16.30032,16.53866667,16.7556,17.00376,17.1855,17.40152,17.542,17.64096,17.76536,17.798,17.876,17.98625,18.08984,18.11533333,18.2,18.1932,18.2265,18.22933333,18.16891667,18.102,17.9865,17.83266667,17.6195,17.31525,17.07017391,16.701,16.39325,16.115,15.833,15.5125,15.3145,15.12016667,14.82043478,14.55330435,14.25695652,13.98417391,13.8246087,13.616,13.27486957,12.91408696,12.69182609,12.32721739,12.10454545,11.8866087,11.72391304,11.60127273,11.50156522,11.36756522,11.21895652,10.76434783,10.28854545,9.877454545,9.554,9.248869565,8.92,8.661090909,8.446,8.218363636,8.024909091,7.812727273,7.670545455,7.467909091,7.172727273,7.013090909,6.699818182,6.389454545,6.19,5.975727273,5.884181818,5.695454545,5.558761905,5.497090909,5.305619048,5.420666667
45.98642857,46.19139098,46.46172932,46.68030075,46.84101504,46.98281955,47.10154135,47.18131579,47.27586466,47.33890977,47.39327068,47.42766917,47.44270677,47.43571429,47.42988722,47.41669173,47.35522556,47.31366795,47.21706767,47.18443609,47.10661654,47.00947368,46.91067669,46.75774436,46.6212782,46.37650376,46.00620301,45.445,44.69184211,43.87034749,43.17909774,42.65766917,42.41203008,42.23127413,42.10804511,42.01150376,41.91328185,41.82022556,41.73977444,41.74335907,41.75379699,41.78555985,41.84541353,41.91220077,41.97928571,42.07229323,42.14368421,42.19525097,42.24781955,42.30606178,42.34789474,42.37648649,42.37216216,42.34571429,42.28969925,42.21793233,42.05092664,41.89571429,41.69563707,41.45278195,41.12185328,40.74030888,40.28699248,39.76760618,39.16082707,38.43494208,37.66191729,36.86517375,36.10610039,35.37639098,34.68861004,34.02744361,33.34552124,32.45953668,31.31240602,29.76930502,27.57501931,24.79239382,21.77733591,18.84127413,16.26799228,14.24513514,12.82714286,11.83872587,11.14027027,10.69432432,10.39119691,10.19343629,10.07876448,10.02586873,10.01432432,10.05718147,10.16544402,10.37455598,10.6892278,11.09154762,11.5596139,12.06656371,12.61034749,13.20857143,13.8180695,14.45071429,15.10509653,15.74938224,16.38297297,17.04710425,17.69746032,18.32235521,18.93269841,19.52830116,20.12,20.67698413,21.21559524,21.70772201,22.21309524,22.6780695,23.1175,23.533861,23.92047619,24.29633205,24.64857143,24.95809524,25.28637066,25.54904762,25.80920635,26.0746332,26.26416667,26.45107143,26.65111111,26.82384921,26.94130952,27.0190873,27.09845238,27.16440476,27.1481746,27.10519841,27.0225,26.89662698,26.76114286,26.61746032,26.45952381,26.27904762,26.07244898,25.85742063,25.64,25.38357143,25.13134694,24.83115079,24.50380952,24.12616327,23.74936508,23.40538776,23.01232653,22.64934694,22.35214286,22.08106122,21.93857143,21.83391837,21.7815102,21.76511905,21.75857143,21.77877551,21.79880952,21.79865306,21.72983673,21.65081633,21.48714286,21.22428571,20.82057143,20.23840816,19.42355102,18.27621849,16.83795918,15.06530612,12.93620408,10.71089796,8.715020408,7.073020408,5.936530612,5.278367347,4.6559375,3.933956044,3.545978836,3.325604396,3.204285714,3.147142857,3.096190476,3.08,3.078571429,3.104835165,3.137142857,3.194285714,3.25956044,3.344010989,3.437830688,3.545604396,3.659120879,3.788624339,3.948901099,4.115989011,4.292142857,4.469285714,4.645054945,4.837912088,5.021978022,5.228571429,5.438131868,5.670228571,5.89,6.126514286,6.334285714,6.54978022,6.762417582,6.987802198,7.236742857,7.470857143,7.746813187,8.010628571,8.277714286,8.558514286,8.838057143,9.164057143,9.455142857,9.753428571,10.06196429,10.31925714,10.5116,10.70222857,10.8952381,11.078,11.28377143,11.45178571,11.65234286,11.78114286,11.89057143,11.98828571,12.01547619,12.07285714,12.15654762,12.25645714,12.27333333,12.355,12.34234286,12.36053571,12.36071429,12.3022619,12.22714286,12.10464286,11.95761905,11.79559524,11.57238095,11.38795031,11.10392857,10.84785714,10.62642857,10.40196429,10.15464286,9.994285714,9.83952381,9.608447205,9.430559006,9.236273292,9.03068323,8.900621118,8.731987578,8.467515528,8.201987578,8.020993789,7.753913043,7.603961039,7.476335404,7.386335404,7.396103896,7.430745342,7.41242236,7.299565217,6.921863354,6.53987013,6.198116883,5.958571429,5.739440994,5.572142857,5.396493506,5.272857143,5.188961039,5.116623377,5.033246753,5,4.897207792,4.750714286,4.640584416,4.447402597,4.267792208,4.193877551,4.065194805,3.994025974,3.897337662,3.834489796,3.783766234,3.777687075,3.842312925
39.33736842,39.32358974,39.42821053,39.55810526,39.58538462,39.63078947,39.68384615,39.68726316,39.74989474,39.76923077,39.78763158,39.79368421,39.78210526,39.76446154,39.764,39.73126316,39.682,39.64978947,39.60726316,39.60507692,39.55205263,39.48284211,39.427,39.31242105,39.23831579,39.07642105,38.82926316,38.47642105,38.02089474,37.55973684,37.19721053,36.92547368,36.84389474,36.78694737,36.72936842,36.678,36.62231579,36.58273684,36.53789474,36.56378378,36.56694737,36.58215789,36.61518919,36.63768421,36.66715789,36.72432432,36.74421053,36.75708108,36.78021053,36.80524324,36.826,36.83,36.80284211,36.76945946,36.72263158,36.66684211,36.54147368,36.43848649,36.31502703,36.15526316,35.94513514,35.70357895,35.42259459,35.10163158,34.73063158,34.26697297,33.76464865,33.26124324,32.7892973,32.32863158,31.87664865,31.41747368,30.93708108,30.29118919,29.43152632,28.22908108,26.50735135,24.31340541,21.91142105,19.42167568,17.24178378,15.49681081,14.26124324,13.41124324,12.82652632,12.48427778,12.27136842,12.16388889,12.12715789,12.14466667,12.19664865,12.29967568,12.47902703,12.77459459,13.17513514,13.64864865,14.1875,14.76032432,15.34032432,15.96933333,16.588,17.21497297,17.83866667,18.448,19.01243243,19.625,20.19951351,20.75189189,21.26994595,21.77205556,22.25333333,22.70886486,23.14621622,23.51977778,23.91524324,24.27616216,24.604,24.91016216,25.18886486,25.46266667,25.72043243,25.92883333,26.17511111,26.34983784,26.51866667,26.71177778,26.83255556,26.95338889,27.0895,27.20783784,27.27166667,27.31911111,27.37266667,27.424,27.36888889,27.32333333,27.25,27.15,27.05377778,26.95733333,26.81911111,26.65911111,26.525,26.35355556,26.15466667,25.93365714,25.73983333,25.47605556,25.20994286,24.91566667,24.60266667,24.31,23.99083333,23.71348571,23.47966667,23.26617143,23.1076,22.98,22.8908,22.83634286,22.79655556,22.79183333,22.76165714,22.72022222,22.63668571,22.56044444,22.4088,22.15433333,21.82097143,21.3156,20.62533333,19.64371429,18.37228571,16.80748571,14.7968,12.55577143,10.3388,8.368228571,6.844114286,5.839771429,5.255032258,4.40237037,3.802444444,3.468518519,3.291777778,3.194153846,3.142888889,3.136444444,3.156814815,3.212444444,3.28237037,3.386,3.512,3.661538462,3.827846154,4.012888889,4.212615385,4.434,4.683615385,4.939461538,5.213076923,5.498076923,5.777692308,6.06,6.345153846,6.640230769,6.948307692,7.244461538,7.551384615,7.84048,8.118923077,8.402769231,8.670076923,8.96784,9.25888,9.56328,9.88608,10.18830769,10.498,10.7884,11.0908,11.43672,11.73569231,12.03136,12.36176,12.60088,12.79632,13.00384,13.15928,13.32291667,13.5004,13.6276,13.7896,13.90728,13.97528,14.08992,14.082,14.13666667,14.2288,14.30233333,14.31048,14.38908333,14.38275,14.41808,14.424,14.3805,14.32533333,14.226,14.106,13.9495,13.70817391,13.50066667,13.22904348,12.96347826,12.754,12.53175,12.291,12.13730435,11.96475,11.70695652,11.48104348,11.26217391,11.06043478,10.93991304,10.73991304,10.47165217,10.158,9.94373913,9.637130435,9.42626087,9.247391304,9.109478261,9.026,8.958363636,8.919545455,8.860181818,8.487818182,8.079565217,7.713217391,7.406,7.147,6.912173913,6.669454545,6.516,6.304727273,6.211,6.046380952,5.958727273,5.810181818,5.586545455,5.488,5.242666667,5.024727273,4.834909091,4.682,4.605,4.504285714,4.339454545,4.283142857,4.194363636,4.189714286
42.79052632,42.97173684,43.17542105,43.34442105,43.44705263,43.54952632,43.64221053,43.68805263,43.76936842,43.82031579,43.87215789,43.90110526,43.91236842,43.916,43.92126316,43.91663158,43.87426316,43.85535135,43.78168421,43.78589474,43.73663158,43.66168421,43.59052632,43.46884211,43.38505263,43.21373684,42.92689474,42.50505263,41.94584211,41.32718919,40.80978947,40.40652632,40.26031579,40.14967568,40.07615789,40.00484211,39.94589189,39.87410526,39.81621053,39.84108108,39.85073684,39.87454054,39.92768421,39.97421622,40.026,40.10657895,40.16673684,40.20075676,40.24589474,40.29805405,40.33536842,40.35610811,40.34983784,40.32557895,40.28715789,40.22605263,40.08897297,39.97757895,39.82778378,39.63305263,39.37956757,39.08718919,38.73178947,38.32248649,37.85031579,37.27621622,36.65005263,36.00167568,35.39794595,34.80105263,34.23264865,33.67663158,33.10772973,32.35502703,31.37647368,30.03297297,28.09075676,25.59313514,22.81854054,20.02956757,17.53524324,15.52789189,14.09108108,13.08567568,12.37832432,11.93616216,11.63751351,11.45686486,11.3587027,11.32659459,11.33740541,11.40508108,11.54221622,11.79454054,12.15508108,12.611,13.13027027,13.69405405,14.28021622,14.924,15.57308108,16.23733333,16.9112973,17.57162162,18.22572973,18.89140541,19.538,20.15756757,20.75488889,21.33075676,21.90194595,22.437,22.952,23.40886486,23.884,24.32216216,24.737,25.11740541,25.47133333,25.8152973,26.13683333,26.41077778,26.71778378,26.94777778,27.18144444,27.43086486,27.59583333,27.762,27.94838889,28.09855556,28.20066667,28.26233333,28.33594444,28.39466667,28.37555556,28.33394444,28.2675,28.16088889,28.04748571,27.92911111,27.783,27.62422222,27.44851429,27.26844444,27.072,26.821,26.58491429,26.30588889,26.01255556,25.6624,25.29927778,24.98245714,24.60817143,24.26382857,23.984,23.71697143,23.56266667,23.43097143,23.35748571,23.33183333,23.306,23.316,23.325,23.31674286,23.24611429,23.15662857,23.00148571,22.74548571,22.3524,21.78617143,21.0036,19.87141176,18.43314286,16.608,14.39211429,12.0024,9.744628571,7.810571429,6.4092,5.5408,4.9480625,4.138769231,3.649333333,3.360692308,3.217407407,3.136,3.095555556,3.084,3.097333333,3.138923077,3.197777778,3.278,3.371384615,3.486307692,3.625185185,3.78,3.950153846,4.134592593,4.347076923,4.584384615,4.817,5.057538462,5.308384615,5.569076923,5.824923077,6.093384615,6.373307692,6.66584,6.948,7.23224,7.497615385,7.773076923,8.039230769,8.327076923,8.62368,8.9056,9.233384615,9.54104,9.85576,10.17144,10.48312,10.85152,11.16,11.4844,11.82575,12.09952,12.324,12.52496,12.72866667,12.92856,13.14976,13.3235,13.50344,13.6588,13.75424,13.85296,13.89166667,13.958,14.0785,14.17512,14.18466667,14.2585,14.26112,14.26875,14.26516667,14.20041667,14.116,13.992,13.84366667,13.64683333,13.42208333,13.21469565,12.913,12.635,12.4,12.16025,11.887,11.71025,11.519,11.25426087,11.04121739,10.80313043,10.572,10.42747826,10.25330435,9.94973913,9.661826087,9.434695652,9.114782609,8.936818182,8.800521739,8.66426087,8.615818182,8.616695652,8.535391304,8.400695652,8.01373913,7.580909091,7.213636364,6.918,6.678521739,6.48,6.281636364,6.132,5.954,5.838727273,5.741272727,5.681818182,5.567181818,5.342363636,5.202636364,4.940727273,4.796,4.59952381,4.482181818,4.410545455,4.270909091,4.223714286,4.176727273,4.068857143,4.187428571
46.35723684,46.55986842,46.82894737,47.02061404,47.15219298,47.25451754,47.35092105,47.40109649,47.47434211,47.50877193,47.53627193,47.55447368,47.55434211,47.54083333,47.52868421,47.50122807,47.43885965,47.39545045,47.32008772,47.28561404,47.21,47.11350877,47.02350877,46.89026316,46.76460526,46.54969298,46.20758772,45.71232456,45.05907895,44.34918919,43.75263158,43.31403509,43.14482456,43.03220721,42.95236842,42.87850877,42.81004505,42.74017544,42.67263158,42.67527027,42.68197368,42.70301802,42.75535088,42.80540541,42.86333333,42.9422807,42.99131579,43.0322973,43.07263158,43.10725225,43.13350877,43.14666667,43.12373874,43.08842105,43.02789474,42.9504386,42.78972973,42.64114035,42.45986486,42.23824561,41.94225225,41.5972973,41.19535088,40.72932432,40.18587719,39.5295045,38.83096491,38.1045045,37.41810811,36.74614035,36.10252252,35.47385965,34.81436937,33.95283784,32.83171053,31.31783784,29.17581081,26.45427928,23.47702703,20.53324324,17.93490991,15.8704955,14.42324324,13.4345045,12.75427928,12.34445946,12.08382883,11.94707207,11.88707207,11.8831982,11.92599099,12.01959459,12.18675676,12.46941441,12.86490991,13.36333333,13.92693694,14.5313964,15.16220721,15.84777778,16.53135135,17.22898148,17.94076577,18.62936937,19.29954955,19.99490991,20.65833333,21.28738739,21.89962963,22.4836036,23.05896396,23.5925,24.10888889,24.58211712,25.06222222,25.50797297,25.92236111,26.30837838,26.67555556,27.03873874,27.37013889,27.6725,27.99698198,28.26018519,28.51564815,28.78121622,28.97671296,29.1725,29.38018519,29.55041667,29.66569444,29.75226852,29.84949074,29.93472222,29.9350463,29.90828704,29.84875,29.74430556,29.60985714,29.44944444,29.28833333,29.12185185,28.947,28.7612037,28.54833333,28.27361111,27.99219048,27.66032407,27.27962963,26.85133333,26.43837963,26.06980952,25.64933333,25.25633333,24.91666667,24.60747619,24.44,24.30009524,24.229,24.20680556,24.17833333,24.1797619,24.17138889,24.15295238,24.06304762,23.9502381,23.77119048,23.4877619,23.053,22.42571429,21.56842857,20.35264706,18.82309524,16.90452381,14.58209524,12.12790476,9.868714286,7.96847619,6.630285714,5.831095238,5.17796875,4.36974359,3.901358025,3.645769231,3.51308642,3.456666667,3.418148148,3.426481481,3.442222222,3.489487179,3.551666667,3.637777778,3.737051282,3.857179487,4.006604938,4.170128205,4.343717949,4.539074074,4.766153846,5.005,5.2575,5.505641026,5.768397436,6.035897436,6.300769231,6.566025641,6.859358974,7.162266667,7.44,7.734,8.001794872,8.269230769,8.516474359,8.783974359,9.055266667,9.309266667,9.606923077,9.8928,10.17866667,10.48033333,10.77373333,11.13393333,11.44566667,11.77433333,12.11458333,12.40246667,12.63886667,12.8682,13.1,13.32493333,13.58186667,13.77833333,14.01613333,14.179,14.30813333,14.4182,14.47256944,14.53833333,14.62611111,14.7282,14.75,14.83041667,14.8382,14.85895833,14.86055556,14.82,14.76479167,14.65,14.50388889,14.30055556,14.015,13.7626087,13.42541667,13.09833333,12.805,12.50291667,12.195,12.00479167,11.86493056,11.60782609,11.39565217,11.14434783,10.88434783,10.70521739,10.53456522,10.22681159,9.947608696,9.753623188,9.467681159,9.271893939,9.117246377,8.987971014,8.964090909,8.948550725,8.891811594,8.711666667,8.32384058,7.887121212,7.504621212,7.215,6.982318841,6.740833333,6.533939394,6.43,6.230606061,6.13469697,5.981666667,5.897575758,5.805378788,5.585833333,5.475227273,5.198030303,5.027651515,4.869206349,4.728863636,4.722121212,4.545909091,4.430714286,4.405909091,4.360873016,4.419603175
44.48118421,44.40004274,44.35149123,44.48421053,44.64653846,44.79004386,44.88692308,44.92403509,44.98649123,45.01641026,45.0545614,45.07657895,45.09302632,45.09230769,45.08166667,45.06026316,45.02833333,45.00149123,44.93061404,44.88636752,44.8095614,44.71714912,44.6375,44.52114035,44.41912281,44.21609649,43.9022807,43.44096491,42.87649123,42.30105263,41.83017544,41.48157895,41.32149123,41.22495614,41.16578947,41.09605263,41.02912281,40.97315789,40.91587719,40.92436937,40.93758772,40.97969298,41.02954955,41.07359649,41.11614035,41.18423423,41.22324561,41.25184685,41.28780702,41.31824324,41.34416667,41.35605263,41.34596491,41.32441441,41.27964912,41.20245614,41.05026316,40.91932432,40.76189189,40.57140351,40.31585586,40.01666667,39.64198198,39.22421053,38.74175439,38.16774775,37.55545045,36.94225225,36.34734234,35.77377193,35.21972973,34.68035088,34.09238739,33.31675676,32.27780702,30.84801802,28.80144144,26.20081081,23.38166667,20.51315315,18.03216216,16.05387387,14.65198198,13.67112613,12.98565789,12.55393519,12.2702193,12.09407407,12.00692982,11.98018519,12.0031982,12.09121622,12.26707207,12.57121622,12.99058559,13.50063063,14.08041667,14.70761261,15.34869369,16.04388889,16.74220721,17.44513514,18.15791667,18.86067568,19.53117117,20.23333333,20.90234234,21.55436937,22.1795045,22.78634259,23.35777778,23.9027027,24.43630631,24.9037037,25.3768018,25.81166667,26.2237037,26.59837838,26.95617117,27.28833333,27.59468468,27.87666667,28.17055556,28.39963964,28.61555556,28.84407407,29.01472222,29.17560185,29.35013889,29.50761261,29.60333333,29.67796296,29.75638889,29.81833333,29.7737037,29.73259259,29.65194444,29.55055556,29.45203704,29.34666667,29.20722222,29.04203704,28.90166667,28.71388889,28.49611111,28.2487619,28.01791667,27.71407407,27.39390476,27.02453704,26.66666667,26.30375,25.92810185,25.56857143,25.25675926,24.99490476,24.8207619,24.71166667,24.65590476,24.62333333,24.6125,24.62194444,24.61152381,24.58638889,24.5087619,24.42333333,24.255,23.96768519,23.57428571,22.97685714,22.16180556,21.01238095,19.52071429,17.69395238,15.37028571,12.79885714,10.288,8.089952381,6.443809524,5.404571429,4.821344086,3.884259259,3.311111111,3.003518519,2.842222222,2.746538462,2.69191358,2.670925926,2.670925926,2.698888889,2.753148148,2.828024691,2.919166667,3.034615385,3.172307692,3.320740741,3.488461538,3.696666667,3.912628205,4.156346154,4.427628205,4.702051282,4.978461538,5.2625,5.553653846,5.853974359,6.178461538,6.506410256,6.837179487,7.163333333,7.474615385,7.802435897,8.114935897,8.461133333,8.8016,9.146133333,9.525666667,9.884423077,10.25333333,10.60593333,10.96206667,11.37666667,11.74057692,12.0876,12.48006667,12.78273333,13.041,13.2906,13.50693333,13.70145833,13.93266667,14.10486667,14.31153333,14.45393333,14.535,14.6738,14.675,14.75451389,14.84513333,14.94222222,14.97193333,15.05909722,15.06208333,15.09653333,15.10916667,15.07833333,15.03388889,14.93041667,14.800625,14.61395833,14.35369565,14.10527778,13.79050725,13.49231884,13.21666667,12.97354167,12.68375,12.46789855,12.26243056,11.97246377,11.73478261,11.47601449,11.2223913,11.07007246,10.85572464,10.53855072,10.21369565,9.93326087,9.570072464,9.320144928,9.109565217,8.939492754,8.824057971,8.766818182,8.702121212,8.59469697,8.184545455,7.732608696,7.318768116,6.971666667,6.687424242,6.434855072,6.173939394,6.005,5.825757576,5.664166667,5.517301587,5.438030303,5.301363636,5.118787879,4.956136364,4.661031746,4.51030303,4.320227273,4.146363636,4.078333333,3.971190476,3.84,3.77452381,3.713030303,3.739761905
44.05118421,44.28635965,44.53850877,44.78188596,44.94745614,45.09201754,45.19785088,45.25578947,45.32333333,45.37868421,45.4195614,45.44881579,45.45407895,45.44916667,45.44017544,45.4247807,45.36982456,45.33509009,45.24947368,45.22184211,45.13719298,45.03859649,44.95078947,44.81403509,44.69964912,44.4875,44.15307018,43.65578947,43.01622807,42.30752252,41.71412281,41.26114035,41.0572807,40.9140991,40.82070175,40.73855263,40.66337838,40.58684211,40.51666667,40.51405405,40.52184211,40.55054054,40.60789474,40.65400901,40.71,40.78425439,40.83578947,40.87315315,40.91535088,40.96238739,41.00096491,41.01905405,41.00608108,40.97903509,40.92815789,40.85798246,40.7022973,40.56070175,40.38531532,40.17210526,39.8809009,39.54540541,39.1404386,38.67400901,38.13438596,37.49351351,36.80776316,36.09252252,35.41995495,34.77131579,34.15797297,33.5604386,32.93454955,32.12792793,31.07653509,29.65045045,27.59531532,24.97783784,22.11882883,19.30378378,16.81653153,14.84211712,13.45135135,12.48175676,11.79891892,11.3672973,11.07513514,10.8927027,10.7890991,10.7472973,10.75072072,10.80747748,10.93076577,11.16518018,11.50301802,11.92958333,12.42572072,12.95945946,13.51873874,14.14388889,14.76806306,15.41009259,16.07256757,16.72252252,17.36495495,18.02801802,18.67148148,19.29162162,19.89527778,20.4786036,21.05855856,21.60472222,22.13027778,22.60427928,23.09027778,23.53702703,23.96083333,24.35171171,24.71833333,25.06887387,25.3925,25.68101852,25.98941441,26.23481481,26.46814815,26.71653153,26.89569444,27.07333333,27.2600463,27.40347222,27.50333333,27.57601852,27.65125,27.71388889,27.70111111,27.66421296,27.59833333,27.49615741,27.38080952,27.26240741,27.11472222,26.955,26.76842857,26.57453704,26.36666667,26.11111111,25.86790476,25.57236111,25.24898148,24.87928571,24.50180556,24.16580952,23.77295238,23.41057143,23.11,22.82771429,22.66722222,22.53757143,22.47566667,22.4525,22.435,22.44,22.45166667,22.451,22.377,22.28952381,22.12419048,21.86066667,21.45166667,20.8622381,20.05880952,18.91441176,17.49142857,15.7052381,13.547,11.257,9.168333333,7.427666667,6.201333333,5.459,4.929114583,4.225128205,3.796419753,3.540833333,3.399259259,3.32,3.257592593,3.239074074,3.232777778,3.26,3.307592593,3.375555556,3.448205128,3.548782051,3.667654321,3.802820513,3.941538462,4.095864198,4.28474359,4.481282051,4.6875,4.896025641,5.112564103,5.332564103,5.556538462,5.788846154,6.04,6.3018,6.55,6.816266667,7.060192308,7.308589744,7.552115385,7.809871795,8.086533333,8.353333333,8.658076923,8.9528,9.2426,9.544266667,9.836466667,10.1868,10.48666667,10.804,11.12375,11.38786667,11.59606667,11.79466667,11.99833333,12.18566667,12.38746667,12.55541667,12.7438,12.87733333,12.97553333,13.06566667,13.09493056,13.15,13.24194444,13.32446667,13.34083333,13.40333333,13.39666667,13.398125,13.38958333,13.32972222,13.258125,13.12625,12.98111111,12.83319444,12.61979167,12.4284058,12.15166667,11.90458333,11.6925,11.46541667,11.23,11.06604167,10.89840278,10.65007246,10.44586957,10.23297101,10.00108696,9.852463768,9.679927536,9.399637681,9.09,8.897101449,8.612101449,8.443636364,8.280724638,8.177898551,8.15969697,8.135652174,8.118188406,7.978913043,7.590072464,7.185151515,6.851212121,6.601666667,6.35673913,6.175833333,6.006742424,5.868333333,5.743787879,5.665151515,5.551969697,5.47,5.364015152,5.165227273,5.056287879,4.837272727,4.692348485,4.528095238,4.441060606,4.341818182,4.231666667,4.166507937,4.142121212,4.073571429,4.158253968
43.64694737,43.79820513,44.01610526,44.20768421,44.29584615,44.38210526,44.45230769,44.46463158,44.51126316,44.53184615,44.55715789,44.57,44.56763158,44.56261538,44.562,44.534,44.50042105,44.47136842,44.41989474,44.39369231,44.33457895,44.26789474,44.202,44.09694737,44.01536842,43.864,43.63347368,43.28378947,42.82405263,42.34357895,41.95105263,41.65978947,41.54268421,41.47705263,41.42852632,41.37515789,41.32378947,41.28347368,41.23315789,41.25108108,41.25084211,41.27547368,41.31654054,41.35336842,41.38284211,41.43605405,41.47131579,41.48805405,41.51021053,41.53194595,41.546,41.54510526,41.52715789,41.5012973,41.45084211,41.39263158,41.25736842,41.15324324,41.02702703,40.872,40.66064865,40.41705263,40.12259459,39.78694737,39.40168421,38.92810811,38.40221622,37.87935135,37.36778378,36.86505263,36.38464865,35.91284211,35.39686486,34.71524324,33.79410526,32.52827027,30.69713514,28.30956757,25.63831579,22.79854054,20.24545946,18.15162162,16.64805405,15.61291892,14.90694737,14.49327778,14.24315789,14.12011111,14.09221053,14.126,14.20362162,14.34124324,14.57054054,14.94708108,15.44221622,16.03448649,16.695,17.398,18.10578378,18.85866667,19.60064865,20.3412973,21.07316667,21.79227027,22.46535135,23.161,23.80994595,24.44059459,25.02643243,25.59677778,26.134,26.64135135,27.12313514,27.54577778,27.97583784,28.37032432,28.73377778,29.06886486,29.38681081,29.68933333,29.97362162,30.21616667,30.48272222,30.68713514,30.89088889,31.09377778,31.23822222,31.37711111,31.54266667,31.68118919,31.757,31.81577778,31.88477778,31.944,31.88966667,31.84066667,31.752,31.63866667,31.52233333,31.40333333,31.24877778,31.08733333,30.96,30.79,30.585,30.35142857,30.12766667,29.83344444,29.5316,29.17722222,28.83933333,28.50583333,28.143,27.80274286,27.51655556,27.27005714,27.09777143,26.974,26.89777143,26.84537143,26.81655556,26.80094444,26.77657143,26.74177778,26.65051429,26.55888889,26.3924,26.11055556,25.72737143,25.14017143,24.33983333,23.20828571,21.69971429,19.83217143,17.38771429,14.60497143,11.7792,9.219485714,7.201142857,5.861485714,5.103483871,4.212074074,3.423777778,2.984074074,2.752666667,2.632461538,2.574148148,2.576888889,2.610222222,2.693481481,2.79562963,2.936222222,3.106,3.313384615,3.546076923,3.808666667,4.090769231,4.412,4.760307692,5.126692308,5.522923077,5.921307692,6.324615385,6.72,7.119384615,7.520384615,7.941230769,8.352461538,8.752615385,9.14376,9.506615385,9.888538462,10.24046154,10.63192,11.0112,11.39376,11.802,12.18076923,12.5724,12.93936,13.31072,13.72752,14.09384615,14.44376,14.85504,15.15768,15.42256,15.68152,15.90064,16.10033333,16.3316,16.49872,16.688,16.8284,16.91128,17.06704,17.076,17.1635,17.282,17.36966667,17.39128,17.49091667,17.498,17.53408,17.538,17.49116667,17.42933333,17.319,17.17225,16.97058333,16.66921739,16.402,16.04808696,15.70373913,15.425,15.12875,14.8205,14.59721739,14.40008333,14.08617391,13.826,13.54973913,13.2793913,13.11521739,12.88434783,12.53965217,12.19452174,11.92252174,11.52426087,11.3046087,11.05408696,10.87321739,10.71121739,10.61109091,10.50363636,10.39463636,9.970727273,9.47226087,9.039826087,8.648,8.326909091,8.039217391,7.742909091,7.478,7.223272727,7.008,6.846952381,6.654909091,6.482363636,6.192,5.989181818,5.69152381,5.462545455,5.219727273,5.010181818,4.836,4.707714286,4.548545455,4.433904762,4.310181818,4.376190476
42.44515789,42.68979487,42.89652632,43.11031579,43.23723077,43.34742105,43.42507692,43.43968421,43.49484211,43.52292308,43.55326316,43.57078947,43.57763158,43.574,43.57,43.54536842,43.50915789,43.48315789,43.42989474,43.39805128,43.33110526,43.25063158,43.187,43.07931579,42.98926316,42.82042105,42.57173684,42.18942105,41.68863158,41.16342105,40.72668421,40.41973684,40.28815789,40.21121053,40.15726316,40.09610526,40.04368421,39.99210526,39.94336842,39.95340541,39.96273684,39.99568421,40.04032432,40.07915789,40.12705263,40.19097297,40.22931579,40.25016216,40.27957895,40.30891892,40.329,40.33236842,40.31442105,40.29335135,40.249,40.18526316,40.04957895,39.938,39.80021622,39.63431579,39.41178378,39.14852632,38.83281081,38.47915789,38.05894737,37.54648649,36.99448649,36.43843243,35.90151351,35.36715789,34.86162162,34.36842105,33.83621622,33.12491892,32.17263158,30.86394595,28.99135135,26.56767568,23.87726316,21.06972973,18.57254054,16.54627027,15.10113514,14.09843243,13.41110526,13.00183333,12.752,12.61766667,12.57715789,12.59622222,12.65827027,12.78043243,12.99248649,13.33491892,13.79924324,14.35551351,14.978,15.64135135,16.31637838,17.03666667,17.75140541,18.46843243,19.18183333,19.88843243,20.55118919,21.233,21.87675676,22.50108108,23.08724324,23.65677778,24.192,24.70356757,25.19978378,25.628,26.0607027,26.45983784,26.83644444,27.18237838,27.51459459,27.82533333,28.12037838,28.37866667,28.65516667,28.87027027,29.08111111,29.30277778,29.46083333,29.60388889,29.781,29.92594595,30.015,30.08577778,30.15233333,30.22,30.17555556,30.13422222,30.051,29.93266667,29.81633333,29.68733333,29.53533333,29.37333333,29.247,29.07977778,28.881,28.64605714,28.416,28.11883333,27.80428571,27.44877778,27.10066667,26.75566667,26.39005556,26.03988571,25.73855556,25.4948,25.32445714,25.213,25.14177143,25.10325714,25.08577778,25.08377778,25.06565714,25.03177778,24.95525714,24.868,24.7,24.42822222,24.05542857,23.47017143,22.68016667,21.55657143,20.07371429,18.24811429,15.89097143,13.23622857,10.5884,8.228114286,6.4136,5.248914286,4.594387097,3.716666667,3.048962963,2.683407407,2.492444444,2.379538462,2.327407407,2.324,2.336962963,2.390444444,2.469185185,2.58037037,2.708,2.869846154,3.053076923,3.264222222,3.488307692,3.756,4.049307692,4.358923077,4.695,5.036384615,5.379615385,5.727,6.078692308,6.424692308,6.797846154,7.162923077,7.533923077,7.8816,8.219384615,8.567923077,8.889076923,9.24472,9.5888,9.94392,10.31992,10.67015385,11.0248,11.37072,11.71952,12.12352,12.46869231,12.81608,13.20392,13.50192,13.75704,14.00552,14.21712,14.41316667,14.6464,14.81736,15.01808,15.16464,15.25664,15.4148,15.426,15.50925,15.61272,15.71333333,15.74688,15.83433333,15.852,15.88544,15.894,15.8505,15.78933333,15.6815,15.5425,15.354,15.06313043,14.806,14.45373913,14.11382609,13.835,13.5415,13.2265,13.0133913,12.8265,12.54356522,12.29521739,12.03982609,11.76582609,11.59695652,11.38982609,11.07365217,10.74634783,10.49226087,10.134,9.889391304,9.692086957,9.50373913,9.399043478,9.303636364,9.222363636,9.123454545,8.732181818,8.272608696,7.844608696,7.502,7.199909091,6.938608696,6.650181818,6.43,6.168727273,6.043,5.847047619,5.696181818,5.57,5.305636364,5.170909091,4.859904762,4.652363636,4.511090909,4.295272727,4.146,3.999142857,3.860727273,3.782190476,3.727727273,3.765809524
44.74310526,45.01084211,45.30689474,45.54478947,45.72110526,45.87478947,46.00252632,46.06615789,46.14984211,46.20452632,46.24526316,46.27163158,46.29126316,46.288,46.28473684,46.26436842,46.21310526,46.18064865,46.09410526,46.05357895,45.96694737,45.86873684,45.77536842,45.63526316,45.50789474,45.27663158,44.92005263,44.39336842,43.69831579,42.94751351,42.32936842,41.87178947,41.66463158,41.51394595,41.40578947,41.32131579,41.24183784,41.15947368,41.08,41.08378378,41.09768421,41.13351351,41.19242105,41.25783784,41.32,41.40421053,41.47336842,41.51659459,41.56789474,41.61432432,41.65431579,41.67448649,41.67183784,41.64663158,41.59294737,41.52221053,41.36194595,41.21073684,41.02281081,40.79673684,40.49551351,40.13189189,39.70894737,39.21486486,38.64505263,37.96227027,37.23405263,36.4827027,35.77394595,35.09221053,34.4412973,33.80821053,33.14627027,32.28854054,31.16326316,29.63854054,27.46702703,24.73437838,21.77356757,18.8852973,16.35827027,14.36735135,12.97010811,12.00254054,11.31864865,10.89043243,10.60572973,10.42102703,10.32210811,10.28189189,10.28659459,10.34616216,10.47016216,10.70351351,11.04027027,11.4705,11.96286486,12.49837838,13.06064865,13.68333333,14.31064865,14.95711111,15.6247027,16.27691892,16.9052973,17.58837838,18.23577778,18.85945946,19.47133333,20.06237838,20.64345946,21.19077778,21.71933333,22.20281081,22.697,23.15989189,23.5845,23.98064865,24.35933333,24.72513514,25.06266667,25.36811111,25.68778378,25.94244444,26.19155556,26.44875676,26.63672222,26.82,27.0115,27.17172222,27.2785,27.35111111,27.42472222,27.48416667,27.46805556,27.42733333,27.353,27.23466667,27.10685714,26.96177778,26.80233333,26.62155556,26.42142857,26.22044444,26.02228571,25.769,25.52,25.22766667,24.90122222,24.522,24.1375,23.80034286,23.4032,23.03228571,22.726,22.44531429,22.29466667,22.17942857,22.12154286,22.1105,22.104,22.12142857,22.13333333,22.13674286,22.07022857,21.98748571,21.82674286,21.56765714,21.1576,20.57257143,19.76097143,18.61258824,17.16971429,15.376,13.21182857,10.93068571,8.8584,7.146,5.9512,5.242,4.6939375,4.018153846,3.601111111,3.352692308,3.219185185,3.146,3.088666667,3.063333333,3.052666667,3.073846154,3.113333333,3.174666667,3.242461538,3.34,3.446296296,3.565076923,3.693538462,3.839777778,4.016769231,4.202538462,4.396,4.589384615,4.796,5.003076923,5.216923077,5.437384615,5.678769231,5.9308,6.166,6.41096,6.647692308,6.881538462,7.109461538,7.351076923,7.60648,7.85296,8.144923077,8.42008,8.70168,8.9912,9.27544,9.60928,9.904,10.2116,10.52425,10.78328,10.98144,11.18664,11.39133333,11.57912,11.79952,11.975,12.16504,12.306,12.41,12.5092,12.53025,12.594,12.68425,12.76912,12.78933333,12.855,12.86248,12.866,12.869,12.81766667,12.724,12.607,12.46233333,12.287,12.06216667,11.85852174,11.584,11.31775,11.087,10.85325,10.6055,10.44525,10.29533333,10.04686957,9.848086957,9.636,9.430956522,9.290956522,9.123391304,8.843043478,8.565043478,8.375217391,8.095391304,7.925363636,7.772869565,7.715043478,7.709818182,7.708782609,7.68626087,7.56573913,7.174956522,6.784545455,6.453090909,6.188,5.992956522,5.789,5.614818182,5.528,5.377090909,5.294909091,5.185818182,5.103272727,5.077272727,4.878909091,4.784363636,4.584909091,4.405,4.264857143,4.179727273,4.084,3.992909091,3.965809524,3.928181818,3.83247619,3.955619048
45.19478947,45.43721053,45.68657895,45.90868421,46.06263158,46.20489474,46.30963158,46.36010526,46.43984211,46.49831579,46.54794737,46.56642105,46.58852632,46.589,46.59763158,46.59436842,46.55115789,46.53021622,46.45084211,46.44031579,46.38063158,46.29831579,46.23778947,46.11484211,46.02315789,45.85642105,45.58010526,45.16694737,44.60663158,43.96772973,43.42115789,42.97052632,42.78589474,42.65664865,42.57168421,42.49552632,42.42497297,42.34831579,42.26884211,42.28016216,42.28763158,42.30448649,42.36410526,42.40821622,42.461,42.53605263,42.59568421,42.63378378,42.67136842,42.71059459,42.75231579,42.77572973,42.76837838,42.74757895,42.70126316,42.64073684,42.49037838,42.37042105,42.21605405,42.02210526,41.75459459,41.45275676,41.07894737,40.66324324,40.16947368,39.57145946,38.92463158,38.24551351,37.59454054,36.95947368,36.35297297,35.76105263,35.15751351,34.36497297,33.35121053,31.95951351,29.95281081,27.31583784,24.32772973,21.27627027,18.4967027,16.23281081,14.60086486,13.44951351,12.63854054,12.11778378,11.77362162,11.56189189,11.44837838,11.40118919,11.41113514,11.48194595,11.62924324,11.89518919,12.28113514,12.77283333,13.34362162,13.96167568,14.60502703,15.316,16.02659459,16.754,17.49491892,18.22124324,18.93718919,19.664,20.37111111,21.04324324,21.70011111,22.31994595,22.93859459,23.51144444,24.065,24.56772973,25.078,25.54648649,25.9875,26.39810811,26.78,27.15416216,27.50616667,27.808,28.15156757,28.42022222,28.68044444,28.95827027,29.15122222,29.346,29.55972222,29.74216667,29.87483333,29.97627778,30.08044444,30.1695,30.169,30.14138889,30.085,29.982,29.87325714,29.74622222,29.59066667,29.43977778,29.27651429,29.1025,28.90542857,28.63933333,28.37542857,28.06127778,27.71022222,27.30485714,26.89572222,26.54577143,26.12611429,25.73622857,25.405,25.10302857,24.936,24.79451429,24.71617143,24.695,24.666,24.67171429,24.68333333,24.68971429,24.612,24.51702857,24.34514286,24.07771429,23.6612,23.06097143,22.22725714,21.01564706,19.48142857,17.50885714,15.11588571,12.51382857,10.04354286,7.918914286,6.382857143,5.439485714,4.9198125,4.094769231,3.589407407,3.305461538,3.140888889,3.058,2.998222222,2.974888889,2.974,3.001846154,3.052888889,3.136,3.224307692,3.348307692,3.489111111,3.643846154,3.820923077,4.011555556,4.237769231,4.473846154,4.737,4.996076923,5.265230769,5.542769231,5.823230769,6.113846154,6.426923077,6.74008,7.038,7.3612,7.652461538,7.954,8.242461538,8.548307692,8.8588,9.17,9.502769231,9.83664,10.17472,10.51784,10.85208,11.24576,11.5936,11.9468,12.31775,12.6312,12.88424,13.1296,13.368,13.60216,13.85408,14.046,14.2756,14.4308,14.552,14.67504,14.7295,14.8,14.91458333,15.0316,15.06066667,15.135,15.17696,15.19825,15.2145,15.16658333,15.099,14.992,14.84266667,14.65016667,14.32958333,14.08530435,13.734,13.41625,13.117,12.84125,12.5505,12.3525,12.16541667,11.90869565,11.634,11.39226087,11.1326087,10.9473913,10.73826087,10.40747826,10.10678261,9.852521739,9.532782609,9.331818182,9.148608696,9.013304348,8.934181818,8.912173913,8.823478261,8.667130435,8.222521739,7.789454545,7.375909091,7.08,6.784347826,6.569,6.324363636,6.194,6.001090909,5.892727273,5.711454545,5.630909091,5.511363636,5.281909091,5.139818182,4.921818182,4.739909091,4.573047619,4.426272727,4.352181818,4.234,4.108666667,4.076,3.997619048,4.014285714
43.87478947,44.01010526,44.17021053,44.27936842,44.33594737,44.38863158,44.43868421,44.46242105,44.53031579,44.56521053,44.58421053,44.59468421,44.60126316,44.601,44.59910526,44.59410526,44.54736842,44.53205405,44.47052632,44.48189474,44.44,44.38421053,44.33210526,44.23642105,44.17389474,44.04947368,43.84552632,43.53673684,43.12484211,42.65681081,42.26705263,41.94747368,41.83905263,41.75237838,41.68615789,41.61705263,41.55275676,41.49452632,41.43610526,41.45389189,41.45652632,41.45924324,41.48652632,41.51827027,41.548,41.60515789,41.63947368,41.66286486,41.68594737,41.71989189,41.73957895,41.74637838,41.73464865,41.71273684,41.66957895,41.62494737,41.50972973,41.41894737,41.30891892,41.16410526,40.96362162,40.73664865,40.47968421,40.17572973,39.81852632,39.36983784,38.89231579,38.38454054,37.9192973,37.44347368,36.99416216,36.552,36.10702703,35.496,34.71089474,33.60843243,32,29.84659459,27.34848649,24.67135135,22.14745946,20.01275676,18.41621622,17.26216216,16.42627027,15.89048649,15.52448649,15.30108108,15.17924324,15.13789189,15.15367568,15.23086486,15.398,15.69210811,16.11318919,16.64066667,17.24594595,17.88189189,18.54264865,19.256,19.95416216,20.66277778,21.37167568,22.05972973,22.72135135,23.39540541,24.03844444,24.65210811,25.23266667,25.78324324,26.32762162,26.82788889,27.30583333,27.72508108,28.159,28.55281081,28.9235,29.27248649,29.58466667,29.89302703,30.1785,30.41827778,30.71075676,30.92133333,31.12966667,31.35535135,31.4995,31.6505,31.83238889,31.98044444,32.07883333,32.14861111,32.2375,32.31883333,32.3025,32.26022222,32.1945,32.09855556,31.99542857,31.87777778,31.74166667,31.60866667,31.48137143,31.34316667,31.178,30.955,30.75011429,30.49083333,30.20522222,29.87371429,29.53994444,29.26108571,28.91114286,28.59754286,28.346,28.08897143,27.946,27.81445714,27.73948571,27.71383333,27.67,27.66485714,27.67533333,27.67422857,27.59525714,27.51085714,27.36725714,27.13114286,26.7724,26.24902857,25.52691429,24.44858824,23.04514286,21.17028571,18.82205714,16.07462857,13.24868571,10.56474286,8.412228571,6.891428571,6.244,5.111076923,4.251111111,3.758461538,3.466888889,3.314,3.229111111,3.218222222,3.242666667,3.325230769,3.445111111,3.599333333,3.789692308,4.017230769,4.28162963,4.564615385,4.874461538,5.215333333,5.591384615,5.979692308,6.392,6.794230769,7.208153846,7.629076923,8.036923077,8.449076923,8.871615385,9.296,9.69,10.08992,10.46115385,10.83476923,11.20607692,11.58892308,11.9852,12.35784,12.76769231,13.15904,13.54448,13.9348,14.31344,14.75672,15.1184,15.5,15.9005,16.23896,16.50208,16.76232,17.00133333,17.23376,17.47744,17.659,17.874,18.0112,18.12296,18.2496,18.29566667,18.382,18.51116667,18.63288,18.64866667,18.7695,18.77584,18.80825,18.81683333,18.77466667,18.702,18.581,18.427,18.2255,17.88233333,17.61295652,17.244,16.90375,16.583,16.2735,15.955,15.7585,15.55375,15.23417391,14.96217391,14.66321739,14.38608696,14.22521739,14.00182609,13.65643478,13.3106087,13.0493913,12.62686957,12.41909091,12.19043478,12.01869565,11.91509091,11.78104348,11.66782609,11.44382609,11.00382609,10.49963636,10.05872727,9.712,9.365478261,9.065,8.761636364,8.51,8.245818182,8.047272727,7.823818182,7.625090909,7.474090909,7.126,6.902363636,6.568,6.306909091,6.066,5.825363636,5.733636364,5.513363636,5.315619048,5.274181818,5.141809524,5.201238095
45.18347368,45.32215789,45.50547368,45.66547368,45.74573684,45.83389474,45.90984211,45.94368421,46.01447368,46.03073684,46.05042105,46.06442105,46.07342105,46.059,46.05110526,46.03236842,45.98110526,45.93610811,45.85884211,45.85421053,45.80557895,45.74136842,45.66526316,45.54757895,45.46484211,45.28847368,45.02268421,44.63631579,44.14752632,43.62940541,43.21578947,42.89473684,42.76263158,42.65367568,42.56473684,42.48221053,42.40183784,42.30905263,42.23115789,42.23951351,42.24163158,42.25437838,42.28484211,42.31091892,42.35,42.41478947,42.44821053,42.46583784,42.49647368,42.52562162,42.54168421,42.55124324,42.53383784,42.502,42.44410526,42.38257895,42.25081081,42.14315789,42.00394595,41.83063158,41.59367568,41.33189189,41.01273684,40.6552973,40.24021053,39.73351351,39.18626316,38.61605405,38.09572973,37.58431579,37.08535135,36.59189474,36.07859459,35.38394595,34.45810526,33.17264865,31.30783784,28.90232432,26.21151351,23.48021622,21.00427027,18.97832432,17.49016216,16.41583784,15.62681081,15.10972973,14.74832432,14.51491892,14.38259459,14.32205405,14.31886486,14.38989189,14.55097297,14.83821622,15.24145946,15.74233333,16.31291892,16.91621622,17.54335135,18.226,18.89691892,19.58622222,20.28135135,20.95275676,21.61513514,22.26843243,22.90355556,23.50416216,24.08233333,24.63913514,25.18362162,25.681,26.16566667,26.59135135,27.03333333,27.44010811,27.81783333,28.17227027,28.49933333,28.82427027,29.12266667,29.39288889,29.68102703,29.90422222,30.14066667,30.38697297,30.54094444,30.702,30.87977778,31.04172222,31.1485,31.22677778,31.31011111,31.38433333,31.37194444,31.32988889,31.2475,31.13322222,31.01102857,30.87266667,30.721,30.58022222,30.42982857,30.27511111,30.10628571,29.87766667,29.6492,29.37916667,29.07377778,28.71222857,28.36333333,28.0656,27.69931429,27.34851429,27.088,26.85674286,26.748,26.65131429,26.60485714,26.58816667,26.572,26.586,26.59666667,26.59771429,26.52822857,26.44662857,26.29691429,26.04937143,25.6868,25.1368,24.36714286,23.24223529,21.80542857,19.90714286,17.56782857,14.94097143,12.34788571,9.987085714,8.189085714,6.994571429,6.4040625,5.401384615,4.671185185,4.263076923,4.033259259,3.896,3.819111111,3.799111111,3.815333333,3.870307692,3.950888889,4.072,4.212153846,4.391769231,4.590518519,4.818769231,5.064,5.326666667,5.630538462,5.950615385,6.28,6.609307692,6.948307692,7.295384615,7.625692308,7.966153846,8.331692308,8.69104,9.026,9.37512,9.691076923,10.01015385,10.32061538,10.65092308,10.98936,11.30656,11.66430769,12.01,12.35456,12.7,13.03536,13.4476,13.788,14.134,14.50475,14.8156,15.0704,15.31904,15.558,15.77696,16.02176,16.211,16.42808,16.5784,16.69032,16.81736,16.86166667,16.96,17.07466667,17.19432,17.24133333,17.3465,17.35992,17.38375,17.421,17.35983333,17.28975,17.165,17.009,16.79733333,16.47675,16.1933913,15.823,15.496,15.197,14.87975,14.564,14.3785,14.20291667,13.92017391,13.66417391,13.37791304,13.1246087,12.93747826,12.76817391,12.42191304,12.10886957,11.88634783,11.54573913,11.35163636,11.17608696,11.0046087,10.93854545,10.85330435,10.76391304,10.58617391,10.15217391,9.701272727,9.316818182,8.976,8.663043478,8.42,8.133181818,7.934,7.715272727,7.540909091,7.322545455,7.231818182,7.089090909,6.787454545,6.594363636,6.320363636,6.080636364,5.867714286,5.676454545,5.54,5.424090909,5.296285714,5.172909091,5.077619048,5.208571429
45.22096491,45.20128205,45.2545614,45.4795614,45.585,45.69355263,45.77128205,45.79087719,45.83570175,45.85525641,45.87859649,45.88899123,45.8920614,45.87807692,45.865,45.83780702,45.80552632,45.76368421,45.69535088,45.66628205,45.60324561,45.52127193,45.45666667,45.35263158,45.25065789,45.06223684,44.78447368,44.37578947,43.86460526,43.3522807,42.94675439,42.67311404,42.55907895,42.48618421,42.43982456,42.38921053,42.33675439,42.28333333,42.23587719,42.25202703,42.26267544,42.29416667,42.33063063,42.35982456,42.39096491,42.44148649,42.47276316,42.48756757,42.50824561,42.5327027,42.55083333,42.55092105,42.5354386,42.50459459,42.44754386,42.37710526,42.2327193,42.11211712,41.96846847,41.78964912,41.55072072,41.27552632,40.94653153,40.56899123,40.13640351,39.61310811,39.0509009,38.48486486,37.93864865,37.40736842,36.89882883,36.39280702,35.84211712,35.08297297,34.06092105,32.64675676,30.60072072,27.97261261,25.09574561,22.12216216,19.52058559,17.4359009,15.96067568,14.94040541,14.2375,13.81527778,13.55109649,13.40388889,13.35315789,13.36388889,13.42202703,13.55157658,13.77891892,14.15391892,14.65662162,15.25527027,15.93041667,16.64716216,17.3786036,18.15666667,18.93603604,19.70914414,20.48236111,21.24369369,21.97013514,22.72083333,23.42540541,24.1054955,24.75540541,25.38263889,25.96833333,26.52355856,27.05698198,27.53055556,28.00315315,28.43373874,28.83759259,29.20698198,29.55918919,29.88555556,30.18887387,30.45111111,30.73453704,30.94797297,31.15833333,31.38083333,31.54115741,31.68583333,31.85652778,32.00864865,32.09472222,32.16666667,32.24944444,32.32166667,32.29231481,32.26592593,32.2025,32.10666667,32.01824074,31.91833333,31.77166667,31.60462963,31.47333333,31.29314815,31.0737037,30.8367619,30.59763889,30.28523148,29.95742857,29.57768519,29.20722222,28.82833333,28.42189815,28.0432381,27.71537037,27.44419048,27.25295238,27.12416667,27.03804762,26.99195238,26.9612037,26.94388889,26.91671429,26.8737037,26.79042857,26.7037037,26.51033333,26.20490741,25.80219048,25.18104762,24.33361111,23.135,21.56,19.62780952,17.10328571,14.24995238,11.40333333,8.874095238,6.93052381,5.675952381,4.968225806,3.97154321,3.306790123,2.925432099,2.735,2.631025641,2.573148148,2.56345679,2.580432099,2.632345679,2.706851852,2.818209877,2.953333333,3.115897436,3.303397436,3.521604938,3.756025641,4.028333333,4.329487179,4.650641026,5.00474359,5.364166667,5.725384615,6.093333333,6.468653846,6.852884615,7.263076923,7.669358974,8.084871795,8.490866667,8.874871795,9.283525641,9.658525641,10.06666667,10.47506667,10.88293333,11.3184,11.72705128,12.151,12.5528,12.96406667,13.4248,13.82448718,14.2232,14.6628,15,15.2858,15.57613333,15.8204,16.051875,16.308,16.49633333,16.72293333,16.879,16.9764,17.12506667,17.13,17.213125,17.31686667,17.38916667,17.39926667,17.491875,17.47166667,17.49006667,17.49666667,17.43402778,17.36222222,17.24583333,17.10979167,16.93722222,16.65913043,16.42638889,16.10326087,15.78557971,15.50583333,15.21645833,14.91166667,14.69152174,14.47486111,14.13304348,13.86826087,13.56949275,13.25775362,13.05695652,12.79826087,12.41949275,12.06,11.76673913,11.35021739,11.07318841,10.82884058,10.62985507,10.46,10.36287879,10.25674242,10.12439394,9.663787879,9.154492754,8.701086957,8.316666667,7.98969697,7.688550725,7.426060606,7.196666667,6.91469697,6.760833333,6.573253968,6.409848485,6.249242424,5.968181818,5.816893939,5.511349206,5.268030303,5.05280303,4.846818182,4.740833333,4.59547619,4.452727273,4.377460317,4.228560606,4.284126984
44.34331579,44.54563158,44.83063158,45.05468421,45.21784211,45.35710526,45.46736842,45.51847368,45.58294737,45.62852632,45.67147368,45.70484211,45.72252632,45.714,45.70547368,45.69689474,45.65447368,45.63178378,45.55515789,45.52694737,45.45084211,45.36368421,45.294,45.17210526,45.06868421,44.87963158,44.59147368,44.15747368,43.59731579,42.99091892,42.48905263,42.10168421,41.934,41.82351351,41.73615789,41.65710526,41.57583784,41.50073684,41.43021053,41.42740541,41.42547368,41.44843243,41.49936842,41.54318919,41.599,41.67042105,41.72168421,41.75881081,41.79863158,41.83632432,41.87347368,41.89048649,41.87837838,41.85663158,41.81715789,41.75526316,41.61113514,41.48810526,41.34113514,41.16073684,40.91518919,40.62891892,40.28031579,39.88535135,39.42884211,38.88086486,38.29905263,37.69421622,37.13140541,36.57968421,36.04783784,35.53736842,35.01113514,34.31367568,33.40294737,32.16210811,30.37735135,28.07627027,25.516,22.89859459,20.50832432,18.5412973,17.08864865,16.04540541,15.29335135,14.80859459,14.48875676,14.28421622,14.17437838,14.13345946,14.14794595,14.222,14.37394595,14.64594595,15.03081081,15.50783333,16.04751351,16.62502703,17.22394595,17.872,18.50864865,19.15844444,19.81037838,20.43967568,21.05789189,21.67286486,22.26622222,22.83032432,23.372,23.886,24.38767568,24.85577778,25.309,25.71448649,26.133,26.52108108,26.88433333,27.21545946,27.53,27.84945946,28.152,28.41488889,28.70135135,28.92333333,29.15422222,29.39118919,29.56111111,29.7305,29.92066667,30.07361111,30.1785,30.24938889,30.33688889,30.41683333,30.41372222,30.38794444,30.3215,30.21961111,30.10308571,29.96844444,29.824,29.69155556,29.54582857,29.39294444,29.21828571,28.983,28.75245714,28.47061111,28.16622222,27.81405714,27.46388889,27.16308571,26.80491429,26.46714286,26.175,25.91028571,25.78266667,25.68182857,25.64257143,25.64116667,25.636,25.65257143,25.67333333,25.67171429,25.6036,25.52954286,25.39777143,25.17491429,24.8288,24.31068571,23.57794286,22.51105882,21.15228571,19.39457143,17.168,14.6616,12.22131429,9.982228571,8.2356,7.051657143,6.450875,5.480153846,4.745851852,4.311846154,4.069555556,3.946,3.857555556,3.846444444,3.869333333,3.942615385,4.040444444,4.174666667,4.331076923,4.527153846,4.750518519,4.988,5.256153846,5.535111111,5.851769231,6.178076923,6.516,6.848153846,7.189,7.532769231,7.862153846,8.198923077,8.546769231,8.89456,9.216,9.54336,9.84,10.13661538,10.41569231,10.70138462,10.99464,11.27416,11.59107692,11.8904,12.20016,12.50992,12.81024,13.18224,13.4924,13.8216,14.16725,14.47944,14.71656,14.94264,15.18333333,15.39824,15.66496,15.8525,16.08216,16.2372,16.35704,16.47904,16.52966667,16.612,16.72883333,16.8416,16.86466667,16.9435,16.98032,17.006,17.01983333,16.97708333,16.90925,16.7655,16.61866667,16.4335,16.12283333,15.86573913,15.507,15.18025,14.908,14.6035,14.2825,14.1015,13.9685,13.70495652,13.46895652,13.192,12.91695652,12.75304348,12.59469565,12.28426087,11.97982609,11.76208696,11.48208696,11.28345455,11.10547826,10.95347826,10.88672727,10.82443478,10.74069565,10.57269565,10.1473913,9.706727273,9.332818182,9.012,8.729391304,8.468,8.219272727,8.022,7.782727273,7.635818182,7.479454545,7.316909091,7.175454545,6.893818182,6.736,6.439636364,6.188727273,6.026190476,5.809272727,5.688,5.505818182,5.410380952,5.364545455,5.23647619,5.335428571
45.89557895,46.03615385,46.23126316,46.36126316,46.42138462,46.48184211,46.53292308,46.53557895,46.58652632,46.60646154,46.62163158,46.61894737,46.62368421,46.60846154,46.598,46.56610526,46.52968421,46.51273684,46.45957895,46.43917949,46.38352632,46.31863158,46.256,46.15094737,46.07536842,45.92489474,45.69089474,45.34489474,44.902,44.43468421,44.05368421,43.79468421,43.70652632,43.65094737,43.60705263,43.55915789,43.52105263,43.48378947,43.45347368,43.47491892,43.46778947,43.49105263,43.52318919,43.55410526,43.57989474,43.63059459,43.66073684,43.66502703,43.68284211,43.7012973,43.712,43.70784211,43.68389474,43.64740541,43.59610526,43.53989474,43.41136842,43.30562162,43.17275676,43.01694737,42.80664865,42.56863158,42.28551351,41.95784211,41.58063158,41.11405405,40.60697297,40.09459459,39.61005405,39.12210526,38.65189189,38.18,37.67724324,36.99497297,36.079,34.8087027,32.97167568,30.57956757,27.91015789,25.06491892,22.50621622,20.41745946,18.9232973,17.90302703,17.22357895,16.84194444,16.62847368,16.53944444,16.54263158,16.60044444,16.70232432,16.86794595,17.12864865,17.53675676,18.07675676,18.71324324,19.417,20.15891892,20.89718919,21.67933333,22.44751351,23.21405405,23.96333333,24.69767568,25.38551351,26.102,26.76313514,27.402,28.002,28.57866667,29.122,29.62794595,30.11113514,30.532,30.96145946,31.3507027,31.71133333,32.03551351,32.33983784,32.63,32.89508108,33.124,33.37505556,33.56459459,33.73888889,33.93377778,34.06561111,34.19755556,34.34566667,34.46767568,34.532,34.58444444,34.64511111,34.696,34.63444444,34.58822222,34.502,34.38422222,34.27422222,34.15466667,34.00533333,33.83511111,33.701,33.52777778,33.327,33.0948,32.87666667,32.58966667,32.296,31.94922222,31.61666667,31.28733333,30.92277778,30.61154286,30.34566667,30.09382857,29.89771429,29.744,29.64331429,29.57234286,29.52822222,29.49755556,29.45914286,29.40088889,29.30102857,29.196,29.0052,28.694,28.28902857,27.68285714,26.85316667,25.68085714,24.12657143,22.1944,19.6528,16.74377143,13.7516,10.99548571,8.788228571,7.2712,6.417870968,5.643111111,4.710740741,4.172666667,3.890666667,3.739384615,3.676518519,3.680888889,3.725333333,3.838148148,3.977925926,4.17562963,4.4,4.659692308,4.963769231,5.294222222,5.638,6.036,6.453692308,6.893,7.359076923,7.826230769,8.292846154,8.758,9.216076923,9.680153846,10.16123077,10.624,11.08361538,11.5264,11.93846154,12.37107692,12.76530769,13.21456,13.654,14.09592,14.55816,14.98576923,15.4176,15.82648,16.23696,16.69928,17.08976923,17.47072,17.89848,18.2172,18.478,18.73192,18.94408,19.1195,19.3464,19.49264,19.66624,19.79216,19.84808,19.99656,19.978,20.05125,20.152,20.23933333,20.24128,20.33516667,20.3265,20.35568,20.36,20.30566667,20.222,20.1005,19.9575,19.75458333,19.4433913,19.191,18.82765217,18.49104348,18.213,17.92475,17.592,17.38156522,17.16266667,16.8013913,16.51956522,16.23347826,15.93356522,15.78356522,15.53843478,15.14626087,14.76104348,14.4786087,14.03078261,13.77486957,13.50565217,13.288,13.13226087,12.97509091,12.86945455,12.72036364,12.25872727,11.73547826,11.25695652,10.824,10.48109091,10.16547826,9.826181818,9.56,9.231636364,9.046,8.813238095,8.626363636,8.388181818,8.031272727,7.813545455,7.418190476,7.186727273,6.896454545,6.678,6.466,6.254,6.090363636,5.924285714,5.742727273,5.832285714
41.69769737,41.84440789,42.10111842,42.27690789,42.40519737,42.51763158,42.59947368,42.64710526,42.72177632,42.76506579,42.80855263,42.83921053,42.86046053,42.86875,42.87296053,42.86940789,42.84144737,42.83486486,42.77552632,42.76736842,42.715,42.65552632,42.59421053,42.49868421,42.42236842,42.27453947,42.04756579,41.70493421,41.23625,40.69939189,40.2425,39.88157895,39.73421053,39.62797297,39.55552632,39.49460526,39.43432432,39.37776316,39.33368421,39.35324324,39.36480263,39.39297297,39.44157895,39.49277027,39.5425,39.60782895,39.65855263,39.68966216,39.72697368,39.77054054,39.79947368,39.81405405,39.81398649,39.80157895,39.76736842,39.7125,39.59094595,39.48973684,39.35966216,39.20289474,38.98418919,38.73581081,38.43118421,38.08182432,37.66407895,37.15425676,36.60440789,36.02763514,35.48324324,34.94184211,34.4097973,33.89671053,33.37689189,32.71067568,31.84552632,30.6247973,28.85087838,26.51466216,23.8275,21.04878378,18.49033784,16.38736486,14.85331081,13.77560811,13.01439189,12.53033784,12.20743243,12.0125,11.90804054,11.87074324,11.88790541,11.95533784,12.09472973,12.35871622,12.73777027,13.219375,13.77439189,14.36662162,14.98743243,15.6525,16.32858108,17.01847222,17.72087838,18.40135135,19.08108108,19.75290541,20.41694444,21.04756757,21.66194444,22.25094595,22.83155405,23.37194444,23.888125,24.34912162,24.81916667,25.25540541,25.66166667,26.03790541,26.38,26.71743243,27.02916667,27.30340278,27.5977027,27.82555556,28.04319444,28.26547297,28.43215278,28.59875,28.77847222,28.92763889,29.03208333,29.09083333,29.16375,29.21708333,29.18888889,29.13236111,29.0475,28.93638889,28.82471429,28.69777778,28.56375,28.41583333,28.26142857,28.09673611,27.91178571,27.66958333,27.4435,27.17680556,26.88916667,26.5505,26.21729167,25.90992857,25.54635714,25.20971429,24.93,24.65257143,24.49166667,24.36171429,24.29064286,24.261875,24.2325,24.23464286,24.2425,24.23157143,24.15885714,24.07278571,23.91335714,23.65792857,23.28,22.73957143,21.97642857,20.86441176,19.43142857,17.57,15.29464286,12.76421429,10.29342857,8.104142857,6.451214286,5.378142857,4.724609375,3.845192308,3.273796296,2.941538462,2.77,2.675,2.626944444,2.620277778,2.629166667,2.671153846,2.746111111,2.846666667,2.961153846,3.107596154,3.278518519,3.455384615,3.650961538,3.873240741,4.124903846,4.395769231,4.6775,4.957019231,5.251057692,5.547307692,5.848846154,6.151538462,6.47125,6.7913,7.1025,7.4135,7.710192308,8.010384615,8.319423077,8.659230769,9.0057,9.3309,9.704615385,10.0594,10.4096,10.7626,11.1077,11.4979,11.8245,12.156,12.5115625,12.7986,13.0215,13.2182,13.40416667,13.5836,13.7763,13.9025,14.0697,14.1815,14.2665,14.3689,14.409375,14.48,14.59520833,14.7108,14.73875,14.810625,14.8189,14.8434375,14.85604167,14.8125,14.721875,14.588125,14.44083333,14.24854167,13.97895833,13.76293478,13.4525,13.174375,12.91625,12.6678125,12.41,12.218125,12.0465625,11.76108696,11.52315217,11.29826087,11.06065217,10.90021739,10.72434783,10.40858696,10.08380435,9.83423913,9.499891304,9.295340909,9.119347826,8.982826087,8.935227273,8.831956522,8.790434783,8.655652174,8.243804348,7.7925,7.402727273,7.09,6.86326087,6.61875,6.37,6.2275,6.011818182,5.880909091,5.743181818,5.638636364,5.450340909,5.274772727,5.079204545,4.86,4.641022727,4.505119048,4.320454545,4.205681818,4.136136364,3.995714286,3.924772727,3.848809524,3.863928571
43.56736842,43.75112821,44.00852632,44.21978947,44.31753846,44.41057895,44.48661538,44.51442105,44.58147368,44.612,44.64278947,44.66463158,44.66805263,44.662,44.654,44.62673684,44.59547368,44.57505263,44.53094737,44.50092308,44.43310526,44.35278947,44.277,44.16531579,44.07273684,43.89684211,43.62389474,43.21136842,42.67557895,42.10784211,41.636,41.29347368,41.13689474,41.04163158,40.98063158,40.91305263,40.84252632,40.77947368,40.72336842,40.73340541,40.73073684,40.76036842,40.80945946,40.86042105,40.91305263,40.98562162,41.03442105,41.06016216,41.09463158,41.12491892,41.147,41.15563158,41.14021053,41.1092973,41.067,41.00494737,40.86568421,40.74227027,40.59059459,40.41147368,40.17118919,39.89231579,39.55410811,39.16305263,38.70484211,38.15491892,37.558,36.95827027,36.37513514,35.80526316,35.26118919,34.72884211,34.16372973,33.40383784,32.38989474,31.01513514,29.05335135,26.52610811,23.74063158,20.83659459,18.27243243,16.19524324,14.71264865,13.67751351,12.96657895,12.53277778,12.25694737,12.10288889,12.04326316,12.048,12.10064865,12.20756757,12.40108108,12.72113514,13.16059459,13.69167568,14.296,14.94362162,15.60664865,16.31133333,17.01659459,17.726,18.431,19.12859459,19.79345946,20.475,21.11675676,21.73902703,22.32767568,22.89866667,23.43733333,23.95037838,24.44010811,24.87466667,25.31881081,25.73135135,26.11888889,26.47940541,26.82016216,27.14733333,27.45681081,27.72933333,28.03127778,28.26378378,28.49,28.72633333,28.90155556,29.071,29.24983333,29.40486486,29.50666667,29.582,29.66,29.728,29.68755556,29.64155556,29.54733333,29.41511111,29.27922222,29.12866667,28.963,28.78933333,28.661,28.49177778,28.28133333,28.03794286,27.80083333,27.48894444,27.16697143,26.79366667,26.43866667,26.08766667,25.72016667,25.37674286,25.076,24.83354286,24.66628571,24.554,24.48925714,24.45925714,24.45044444,24.45177778,24.44017143,24.425,24.3532,24.27288889,24.1192,23.85344444,23.49154286,22.91382857,22.12816667,21.01228571,19.54514286,17.74177143,15.43251429,12.84668571,10.2932,8.0424,6.342,5.247714286,4.626774194,3.660962963,3.047777778,2.708888889,2.538666667,2.446923077,2.405259259,2.402296296,2.422666667,2.481333333,2.546740741,2.63762963,2.752,2.888461538,3.044384615,3.230888889,3.429692308,3.662,3.919615385,4.199153846,4.503846154,4.811230769,5.117769231,5.421,5.733076923,6.049076923,6.392307692,6.722769231,7.050076923,7.36592,7.665692308,7.976923077,8.251923077,8.56744,8.86856,9.18536,9.5208,9.827153846,10.1524,10.46256,10.7804,11.1468,11.48338462,11.812,12.17736,12.46928,12.70952,12.952,13.16816,13.37358333,13.604,13.78976,14.0008,14.1604,14.26936,14.42544,14.45,14.54316667,14.6572,14.762,14.80136,14.90316667,14.91475,14.95896,14.98,14.94716667,14.88733333,14.7755,14.635,14.43425,14.14469565,13.859,13.49313043,13.14547826,12.845,12.5315,12.2015,12.00817391,11.83475,11.57721739,11.34086957,11.0966087,10.83104348,10.65886957,10.45408696,10.17478261,9.880173913,9.639826087,9.305217391,9.098086957,8.912782609,8.767478261,8.667130435,8.597818182,8.561545455,8.464363636,8.083090909,7.632869565,7.214173913,6.898,6.599636364,6.339391304,6.076909091,5.894,5.659818182,5.498,5.370666667,5.258727273,5.111090909,4.883090909,4.753545455,4.483809524,4.291090909,4.105,3.927818182,3.842,3.704,3.592,3.513142857,3.470545455,3.457047619
48.39308271,48.58281955,48.81695489,49.01548872,49.15082707,49.26609023,49.35033835,49.37571429,49.42308271,49.4512782,49.46394737,49.47334586,49.47492481,49.47285714,49.46729323,49.45342105,49.41639098,49.39517375,49.32368421,49.30233083,49.23789474,49.17390977,49.11458647,49.00112782,48.91913534,48.78443609,48.56921053,48.23172932,47.79710526,47.32374517,46.93496241,46.62157895,46.48962406,46.38138996,46.29394737,46.21274436,46.13810811,46.06887218,45.98879699,45.9827027,45.97338346,45.99111969,46.03097744,46.06725869,46.11214286,46.16924812,46.20721805,46.22563707,46.24721805,46.27926641,46.29759398,46.29590734,46.28111969,46.25917293,46.21669173,46.15913534,46.02656371,45.93203008,45.81498069,45.66744361,45.46953668,45.23015444,44.9518797,44.62779923,44.24676692,43.77868726,43.27195489,42.73899614,42.24857143,41.75097744,41.26679537,40.79398496,40.30316602,39.64911197,38.79518797,37.60409266,35.85756757,33.55,30.90540541,28.11552124,25.48444015,23.25262548,21.56930502,20.3492278,19.46019305,18.88158301,18.49861004,18.25976834,18.1365251,18.09675676,18.11648649,18.21370656,18.39810811,18.72409266,19.17583012,19.74392857,20.38359073,21.05598456,21.74888031,22.49142857,23.21799228,23.95825397,24.68710425,25.38339768,26.05988417,26.72281853,27.36174603,27.96073359,28.53261905,29.07096525,29.59428571,30.07571429,30.53785714,30.94938224,31.37547619,31.75888031,32.11964286,32.4488417,32.77285714,33.09409266,33.39130952,33.64920635,33.94081081,34.15825397,34.38142857,34.61795367,34.78043651,34.94535714,35.13746032,35.29396825,35.3947619,35.46412698,35.55242063,35.63202381,35.61698413,35.57071429,35.48607143,35.36325397,35.21795918,35.06,34.89452381,34.74634921,34.5922449,34.44301587,34.28306122,34.05404762,33.83636735,33.56472222,33.24793651,32.8715102,32.51781746,32.22159184,31.85897959,31.51746939,31.235,30.95906122,30.83095238,30.74306122,30.70893878,30.71166667,30.70857143,30.72408163,30.73380952,30.73685714,30.666,30.58946939,30.45942857,30.22514286,29.87457143,29.33804082,28.57522449,27.45436975,25.98061224,24.02836735,21.53093878,18.61273469,15.65857143,12.83510204,10.55604082,8.941061224,8.347410714,7.10032967,6.113015873,5.504945055,5.155661376,4.952857143,4.83031746,4.795714286,4.816666667,4.911758242,5.051111111,5.240952381,5.461978022,5.731483516,6.042275132,6.375054945,6.736263736,7.122751323,7.548516484,7.981648352,8.432857143,8.87521978,9.328791209,9.785494505,10.20868132,10.63571429,11.07428571,11.508,11.89142857,12.29057143,12.64807692,13.01406593,13.35846154,13.70120879,14.0524,14.37697143,14.75835165,15.10811429,15.46068571,15.82771429,16.1756,16.6172,16.97,17.35228571,17.76892857,18.14228571,18.42474286,18.71125714,18.99190476,19.24834286,19.55062857,19.75928571,20.01605714,20.19142857,20.32851429,20.48731429,20.54803571,20.64285714,20.7847619,20.92565714,20.97119048,21.08,21.10097143,21.1275,21.16738095,21.11184524,21.02910714,20.88392857,20.69809524,20.45047619,20.04642857,19.72267081,19.26892857,18.85517857,18.48214286,18.10535714,17.71178571,17.50053571,17.32845238,17.02565217,16.72378882,16.39962733,16.09503106,15.92819876,15.71540373,15.35745342,15.03453416,14.80981366,14.4321118,14.2187013,14.02403727,13.83937888,13.71623377,13.61,13.46546584,13.30552795,12.81434783,12.30012987,11.85194805,11.48142857,11.10372671,10.77571429,10.44409091,10.18428571,9.902207792,9.655714286,9.447012987,9.228051948,9.027337662,8.657012987,8.431233766,8.051688312,7.803311688,7.532517007,7.294675325,7.115194805,6.955454545,6.796870748,6.698441558,6.530204082,6.639047619
37.44805263,37.55621053,37.70036842,37.81331579,37.87647368,37.93463158,37.98894737,38.01084211,38.06373684,38.08778947,38.10110526,38.10721053,38.10652632,38.095,38.08347368,38.07463158,38.01973684,37.98064865,37.91642105,37.90905263,37.86010526,37.80168421,37.73715789,37.63231579,37.55110526,37.39336842,37.16310526,36.82721053,36.38684211,35.91010811,35.51694737,35.21726316,35.09589474,35.00102703,34.92815789,34.86015789,34.79854054,34.72957895,34.67168421,34.67567568,34.67326316,34.67821622,34.70621053,34.73221622,34.775,34.83189474,34.86915789,34.89183784,34.91757895,34.94843243,34.96968421,34.976,34.96037838,34.93863158,34.89757895,34.84947368,34.73956757,34.64621053,34.5272973,34.374,34.16427027,33.93421622,33.66452632,33.34913514,32.97652632,32.52297297,32.03052632,31.51794595,31.03621622,30.57263158,30.12767568,29.68673684,29.23010811,28.61567568,27.81378947,26.71756757,25.10837838,23.01616216,20.67345946,18.27783784,16.09632432,14.30983784,13.01367568,12.10016216,11.44897297,11.03848649,10.76810811,10.60632432,10.5272973,10.50643243,10.52167568,10.59205405,10.72686486,10.96513514,11.30027027,11.72316667,12.20108108,12.71145946,13.24324324,13.814,14.38654054,14.966,15.55475676,16.11962162,16.68345946,17.23843243,17.77888889,18.29156757,18.78522222,19.26264865,19.72324324,20.15266667,20.5665,20.93713514,21.32533333,21.68189189,22.01,22.31810811,22.604,22.89318919,23.15933333,23.38533333,23.63821622,23.84266667,24.03188889,24.23578378,24.37644444,24.517,24.66622222,24.78105556,24.84716667,24.88483333,24.93344444,24.9715,24.94711111,24.9105,24.8605,24.78894444,24.70405714,24.61222222,24.495,24.36688889,24.22708571,24.077,23.90857143,23.69066667,23.48468571,23.24466667,22.98166667,22.66868571,22.36,22.09731429,21.78348571,21.49977143,21.28,21.06937143,20.954,20.84988571,20.79885714,20.77983333,20.762,20.76942857,20.78133333,20.78074286,20.71834286,20.65045714,20.52902857,20.31862857,19.9972,19.51685714,18.85582857,17.88694118,16.664,15.08628571,13.10817143,10.92954286,8.879085714,7.081885714,5.759142857,4.929085714,4.3239375,3.559076923,3.064444444,2.780153846,2.644888889,2.568,2.531777778,2.529111111,2.542,2.591230769,2.654,2.739333333,2.836769231,2.962769231,3.106962963,3.261538462,3.436153846,3.623037037,3.839769231,4.066384615,4.308,4.541307692,4.783692308,5.040615385,5.276615385,5.528615385,5.789923077,6.05104,6.302,6.56056,6.787923077,7.014461538,7.241846154,7.471384615,7.71688,7.9512,8.212461538,8.46336,8.71528,8.97296,9.22376,9.5296,9.7836,10.054,10.325,10.55472,10.73608,10.91808,11.09666667,11.28456,11.49088,11.643,11.82608,11.9584,12.05864,12.17096,12.21741667,12.282,12.38433333,12.49008,12.51533333,12.5935,12.62496,12.66,12.66391667,12.60675,12.54375,12.4385,12.29,12.112,11.86008333,11.64521739,11.354,11.1,10.88,10.66,10.429,10.29425,10.15775,9.934521739,9.719043478,9.505217391,9.290608696,9.161217391,9.009391304,8.746347826,8.464434783,8.282173913,8.029913043,7.841272727,7.710521739,7.660434783,7.606363636,7.553565217,7.524956522,7.384956522,7.040956522,6.669090909,6.350636364,6.096,5.883478261,5.675,5.497272727,5.354,5.166727273,5.094727273,4.985090909,4.888181818,4.776909091,4.597818182,4.448272727,4.269454545,4.077272727,3.939904762,3.854,3.714363636,3.656818182,3.534857143,3.502363636,3.426285714,3.519238095
37.95047368,38.08889474,38.28905263,38.43415789,38.52363158,38.612,38.67584211,38.70242105,38.74084211,38.76921053,38.78931579,38.80068421,38.80142105,38.784,38.77473684,38.76515789,38.72268421,38.68837838,38.62736842,38.60852632,38.55463158,38.48957895,38.42463158,38.32915789,38.24731579,38.09463158,37.86831579,37.52552632,37.08710526,36.60735135,36.21305263,35.91378947,35.79968421,35.7127027,35.63652632,35.57505263,35.51610811,35.46084211,35.40347368,35.40367568,35.40036842,35.4132973,35.44084211,35.46756757,35.507,35.559,35.58884211,35.61178378,35.64121053,35.6707027,35.69557895,35.70237838,35.69102703,35.66157895,35.62315789,35.56989474,35.45140541,35.35231579,35.22983784,35.08094737,34.87389189,34.63886486,34.35768421,34.03589189,33.65557895,33.19697297,32.69963158,32.18627027,31.70518919,31.24063158,30.79054054,30.34684211,29.89210811,29.27924324,28.46915789,27.35686486,25.726,23.60708108,21.23464865,18.82259459,16.62610811,14.83389189,13.53897297,12.62951351,11.98302703,11.57524324,11.31048649,11.15216216,11.07216216,11.04616216,11.06540541,11.13502703,11.27254054,11.52027027,11.86459459,12.2985,12.78616216,13.30691892,13.84713514,14.438,15.02416216,15.62022222,16.21967568,16.79989189,17.36432432,17.95162162,18.50955556,19.03648649,19.549,20.03848649,20.51805405,20.95988889,21.38416667,21.77772973,22.17466667,22.53962162,22.87633333,23.18610811,23.484,23.77178378,24.03566667,24.26155556,24.51524324,24.70866667,24.89911111,25.10378378,25.24333333,25.3875,25.53677778,25.65294444,25.7245,25.76005556,25.81144444,25.85966667,25.83805556,25.80938889,25.755,25.68877778,25.61805714,25.52888889,25.42,25.29155556,25.14582857,24.987,24.81857143,24.599,24.39131429,24.14922222,23.87344444,23.55394286,23.23855556,22.9672,22.63874286,22.34491429,22.108,21.88388571,21.758,21.64691429,21.5892,21.56716667,21.542,21.54485714,21.555,21.54828571,21.4876,21.40731429,21.27051429,21.04685714,20.7128,20.21622857,19.52822857,18.53482353,17.27571429,15.66942857,13.6492,11.4284,9.3476,7.535085714,6.195428571,5.353257143,4.8785,4.106923077,3.611777778,3.317461538,3.154592593,3.07,3.010666667,2.986444444,2.988666667,3.031076923,3.090888889,3.179333333,3.278769231,3.409,3.557111111,3.715538462,3.900615385,4.093037037,4.316384615,4.551230769,4.79,5.029307692,5.283692308,5.545076923,5.797538462,6.053384615,6.331307692,6.61136,6.87,7.14456,7.389230769,7.644,7.879846154,8.135846154,8.402,8.65552,8.937384615,9.21232,9.4864,9.77048,10.03904,10.36456,10.6328,10.9116,11.20725,11.44272,11.6312,11.81496,12.00666667,12.18848,12.392,12.542,12.72256,12.8448,12.9496,13.03392,13.0755,13.138,13.22633333,13.33016,13.34066667,13.429,13.4464,13.46875,13.46883333,13.41675,13.357,13.244,13.114,12.93583333,12.69575,12.48556522,12.23,11.98875,11.77,11.5645,11.358,11.21275,11.05666667,10.80165217,10.6053913,10.38,10.18530435,10.04052174,9.861913043,9.611565217,9.334086957,9.13573913,8.83226087,8.676363636,8.557913043,8.446869565,8.39,8.348869565,8.274434783,8.169391304,7.796434783,7.427090909,7.120636364,6.894,6.624173913,6.429,6.231545455,6.128,5.955272727,5.851090909,5.720545455,5.670363636,5.542636364,5.358818182,5.237,4.990181818,4.815363636,4.693714286,4.500909091,4.455090909,4.370363636,4.264285714,4.234727273,4.119428571,4.285619048
38.72322368,38.60435897,38.59657895,38.68144737,38.72384615,38.78302632,38.83442308,38.83828947,38.88118421,38.89557692,38.91072368,38.91480263,38.90460526,38.88384615,38.8775,38.85513158,38.82381579,38.79434211,38.74947368,38.73525641,38.67875,38.61493421,38.56375,38.46157895,38.39467105,38.24625,38.02822368,37.71980263,37.31782895,36.91388158,36.59625,36.34703947,36.27302632,36.21842105,36.16394737,36.10684211,36.05907895,36.00907895,35.96065789,35.98344595,35.98677632,36.00355263,36.03256757,36.04907895,36.07605263,36.12743243,36.15184211,36.16,36.17684211,36.19743243,36.2125,36.21092105,36.18894737,36.15783784,36.11236842,36.05328947,35.93605263,35.84540541,35.73635135,35.5975,35.40695946,35.18973684,34.93581081,34.65296053,34.31684211,33.89945946,33.44513514,32.99351351,32.56445946,32.13631579,31.72290541,31.30960526,30.87344595,30.27898649,29.48756579,28.38175676,26.77844595,24.71885135,22.45236842,20.05114865,17.92648649,16.20013514,14.96912162,14.11608108,13.51993421,13.17229167,12.95125,12.835,12.79144737,12.8075,12.85344595,12.95493243,13.13695946,13.435,13.83702703,14.31304054,14.85125,15.41891892,15.99337838,16.60833333,17.21594595,17.82918919,18.43375,19.03236486,19.58047297,20.17375,20.72378378,21.25189189,21.75,22.23541667,22.695,23.1222973,23.53898649,23.89472222,24.26405405,24.60101351,24.91388889,25.20108108,25.46351351,25.72166667,25.9627027,26.15270833,26.38305556,26.54222973,26.70138889,26.88472222,27.00076389,27.11361111,27.23895833,27.34216216,27.39875,27.44805556,27.49111111,27.5325,27.46263889,27.41194444,27.33791667,27.23583333,27.14347222,27.04666667,26.91416667,26.75666667,26.6325,26.47277778,26.29833333,26.09057143,25.91291667,25.678125,25.43335714,25.15722222,24.86833333,24.59145833,24.29541667,24.02864286,23.81319444,23.61635714,23.47978571,23.36625,23.29614286,23.24592857,23.21541667,23.20868056,23.18228571,23.15166667,23.078,23.00805556,22.8625,22.63013889,22.31371429,21.82528571,21.16944444,20.22964286,18.99571429,17.47521429,15.48614286,13.24342857,10.9785,8.931928571,7.307428571,6.214571429,5.585725806,4.831296296,4.173703704,3.81,3.605833333,3.484423077,3.421296296,3.406203704,3.406203704,3.466481481,3.543703704,3.659537037,3.79625,3.963076923,4.151442308,4.35037037,4.565,4.8125,5.084615385,5.364134615,5.664903846,5.96875,6.284134615,6.58375,6.887692308,7.193269231,7.522692308,7.838846154,8.150961538,8.4539,8.741346154,9.039903846,9.313942308,9.6382,9.9318,10.2502,10.5869,10.89413462,11.2235,11.524,11.8199,12.1818,12.46942308,12.7586,13.0874,13.3284,13.5289,13.7308,13.8896,14.03197917,14.2065,14.318,14.4706,14.5755,14.628,14.7605,14.73,14.8003125,14.8892,14.96916667,14.9851,15.0434375,15.05375,15.0824,15.09875,15.04958333,15.0025,14.89875,14.7809375,14.60875,14.37119565,14.15375,13.86978261,13.61228261,13.39875,13.188125,12.93875,12.78076087,12.61708333,12.34836957,12.12521739,11.90967391,11.69347826,11.5748913,11.40576087,11.11,10.82706522,10.60032609,10.26,10.0625,9.877173913,9.758478261,9.638913043,9.559545455,9.488068182,9.436590909,9.086136364,8.662608696,8.28173913,7.9775,7.733068182,7.482065217,7.264318182,7.0925,6.871363636,6.7025,6.594642857,6.448181818,6.294545455,6.104772727,5.969431818,5.693095238,5.481818182,5.316704545,5.141818182,5.06625,4.930357143,4.773863636,4.734166667,4.595568182,4.664285714
44.92078947,44.95478632,44.99561404,45.22692982,45.42615385,45.60517544,45.73205128,45.7877193,45.87824561,45.93564103,45.98583333,46.01798246,46.03267544,46.0374359,46.03166667,46.00192982,45.97,45.92894737,45.84622807,45.78782051,45.69653509,45.59241228,45.4925,45.3422807,45.20307018,44.94723684,44.54798246,43.95223684,43.21451754,42.46938596,41.86171053,41.43289474,41.23223684,41.10881579,41.02745614,40.94719298,40.87096491,40.79350877,40.73061404,40.7422973,40.76583333,40.81763158,40.88608108,40.94412281,41.0072807,41.08954955,41.15039474,41.19279279,41.23982456,41.27986486,41.31666667,41.33513158,41.3245614,41.30117117,41.23394737,41.14175439,40.96666667,40.80810811,40.60594595,40.36359649,40.04031532,39.65131579,39.19545045,38.67289474,38.07201754,37.36914414,36.61441441,35.86716216,35.13689189,34.44131579,33.78324324,33.13912281,32.4390991,31.52545045,30.31285088,28.67252252,26.37563063,23.53436937,20.53780702,17.59153153,15.11581081,13.20076577,11.88806306,10.98941441,10.36842105,9.984490741,9.7325,9.577685185,9.496666667,9.473148148,9.494954955,9.563963964,9.715045045,9.977297297,10.34306306,10.79234234,11.31333333,11.88148649,12.46977477,13.11055556,13.76563063,14.43387387,15.11833333,15.8031982,16.46815315,17.16166667,17.83355856,18.49018018,19.12279279,19.74759259,20.34,20.91009009,21.46833333,21.96759259,22.46801802,22.9295045,23.36944444,23.78274775,24.16878378,24.52722222,24.87076577,25.18138889,25.50231481,25.7577027,26.00314815,26.25638889,26.45416667,26.63935185,26.83236111,26.99977477,27.10694444,27.19351852,27.27111111,27.33333333,27.28907407,27.23814815,27.14416667,27.01962963,26.89953704,26.77333333,26.62,26.44203704,26.2825,26.07851852,25.82601852,25.55742857,25.29527778,24.96972222,24.62395238,24.23703704,23.85722222,23.47638889,23.08759259,22.71304762,22.39296296,22.13104762,21.95466667,21.85,21.78952381,21.75938095,21.74842593,21.7562037,21.75514286,21.73777778,21.66709524,21.57648148,21.402,21.10888889,20.70052381,20.08471429,19.25365741,18.09642857,16.61190476,14.84533333,12.67747619,10.37785714,8.273,6.555809524,5.382190476,4.726857143,4.368924731,3.464753086,3.108765432,2.924135802,2.831296296,2.778333333,2.739506173,2.727345679,2.72117284,2.740432099,2.754074074,2.795864198,2.846666667,2.914102564,2.986217949,3.069259259,3.166025641,3.276666667,3.416153846,3.566282051,3.736089744,3.909358974,4.080769231,4.260833333,4.448012821,4.648846154,4.875384615,5.102692308,5.342179487,5.577533333,5.805512821,6.040641026,6.260192308,6.514733333,6.7862,7.0576,7.3482,7.645448718,7.946333333,8.2348,8.539666667,8.887133333,9.200448718,9.508933333,9.853333333,10.11466667,10.3276,10.53666667,10.71886667,10.89229167,11.091,11.2498,11.42533333,11.56533333,11.6518,11.76826667,11.78166667,11.84902778,11.93913333,12.02805556,12.05533333,12.14291667,12.15458333,12.181,12.2075,12.18583333,12.15277778,12.06083333,11.94666667,11.78180556,11.51369565,11.2775,10.97963768,10.69123188,10.455,10.208125,9.943333333,9.75673913,9.585416667,9.347101449,9.15384058,8.947681159,8.743043478,8.60115942,8.414202899,8.145434783,7.885434783,7.651231884,7.348768116,7.15384058,7.002463768,6.900072464,6.865797101,6.843333333,6.865075758,6.798712121,6.442727273,6.022101449,5.686521739,5.401666667,5.168560606,4.969782609,4.806818182,4.696666667,4.530909091,4.4425,4.382698413,4.343787879,4.270606061,4.117727273,4.018636364,3.858174603,3.705606061,3.590378788,3.491363636,3.393333333,3.333571429,3.229545455,3.195793651,3.178257576,3.245238095
47.88714912,48.09631579,48.34035088,48.52798246,48.67052632,48.78907895,48.89355263,48.94004386,49.00934211,49.04719298,49.07513158,49.09780702,49.10600877,49.08916667,49.07640351,49.06,49.00649123,48.97175676,48.87745614,48.85035088,48.77298246,48.69008772,48.60157895,48.47473684,48.36144737,48.16100877,47.84960526,47.39315789,46.80372807,46.1486036,45.59780702,45.15868421,44.95438596,44.80603604,44.70666667,44.60951754,44.51351351,44.41745614,44.33719298,44.34202703,44.34894737,44.37220721,44.42815789,44.47292793,44.52916667,44.61061404,44.66535088,44.69391892,44.73732456,44.78648649,44.8145614,44.82198198,44.80963964,44.78403509,44.73578947,44.65942982,44.50306306,44.37289474,44.21189189,44.01350877,43.74243243,43.42810811,43.05070175,42.61864865,42.12219298,41.51490991,40.86390351,40.17630631,39.53099099,38.89526316,38.30018018,37.72,37.11130631,36.30211712,35.27092105,33.87310811,31.82923423,29.16905405,26.21815315,23.21418919,20.49463964,18.27373874,16.66432432,15.52018018,14.70351351,14.17963964,13.82684685,13.60509009,13.48788288,13.4436036,13.44806306,13.51481982,13.66783784,13.9418018,14.33324324,14.83013889,15.39527027,16.00283784,16.63391892,17.32611111,18.01085586,18.71722222,19.42887387,20.11936937,20.79067568,21.48581081,22.15462963,22.78653153,23.40333333,23.99346847,24.57247748,25.11490741,25.62875,26.09968468,26.58027778,27.02725225,27.44097222,27.83626126,28.19611111,28.5477027,28.87666667,29.17513889,29.49418919,29.74518519,29.98388889,30.23648649,30.41222222,30.58791667,30.7799537,30.94787037,31.05930556,31.12615741,31.19328704,31.24263889,31.18518519,31.1012037,30.97708333,30.82666667,30.66985714,30.50944444,30.33583333,30.15666667,29.96695238,29.76939815,29.55238095,29.29111111,29.05352381,28.77740741,28.46888889,28.10752381,27.75472222,27.44633333,27.07490476,26.72838095,26.45083333,26.2037619,26.08666667,25.99361905,25.94904762,25.94486111,25.94,25.96380952,25.99361111,26.00019048,25.93780952,25.85604762,25.70885714,25.4587619,25.06466667,24.48361905,23.6732381,22.49509804,21.00666667,19.11380952,16.72342857,14.07904762,11.59295238,9.410904762,7.792190476,6.780809524,6.082708333,5.122179487,4.530308642,4.191923077,4.016604938,3.923333333,3.855925926,3.846296296,3.846666667,3.891923077,3.953703704,4.042777778,4.14525641,4.279615385,4.441666667,4.614487179,4.811666667,5.025617284,5.271602564,5.532435897,5.810833333,6.086794872,6.369166667,6.662948718,6.95,7.244871795,7.556987179,7.872733333,8.168333333,8.470533333,8.741794872,9.021538462,9.29224359,9.593205128,9.905,10.19533333,10.53538462,10.853,11.1716,11.4972,11.81273333,12.2014,12.51566667,12.85,13.20604167,13.49353333,13.71173333,13.92586667,14.13888889,14.33866667,14.56313333,14.72416667,14.93086667,15.06766667,15.1764,15.2876,15.32645833,15.40833333,15.52993056,15.66606667,15.7,15.82166667,15.83486667,15.87875,15.90736111,15.860625,15.775625,15.63333333,15.44638889,15.19916667,14.87451389,14.6015942,14.22166667,13.90854167,13.63,13.37104167,13.0725,12.88541667,12.71736111,12.42992754,12.2292029,12.00173913,11.76166667,11.65572464,11.47369565,11.17985507,10.88434783,10.65833333,10.34514493,10.16598485,10.02130435,9.898985507,9.856818182,9.833550725,9.797971014,9.652971014,9.227101449,8.750454545,8.374393939,8.065,7.785,7.56,7.326060606,7.17,7.013030303,6.905757576,6.794090909,6.681060606,6.576515152,6.329621212,6.185530303,5.940909091,5.765227273,5.614047619,5.427424242,5.341818182,5.291212121,5.151269841,5.103939394,5.030714286,5.157380952
48.22673684,48.32921053,48.55747368,48.72226316,48.83147368,48.92989474,48.99731579,49.03968421,49.10310526,49.13757895,49.17194737,49.19736842,49.20889474,49.206,49.20473684,49.19552632,49.17047368,49.15091892,49.09305263,49.09189474,49.04410526,48.98831579,48.93736842,48.84726316,48.77352632,48.63410526,48.41305263,48.06168421,47.61621053,47.11816216,46.70189474,46.37431579,46.21515789,46.10918919,46.01673684,45.92426316,45.83227027,45.74978947,45.67136842,45.6592973,45.65073684,45.67043243,45.72136842,45.77086486,45.826,45.91147368,45.97968421,46.01972973,46.05610526,46.0947027,46.11957895,46.13935135,46.1352973,46.10757895,46.07073684,46.02789474,45.90940541,45.81189474,45.69610811,45.54989474,45.33902703,45.10205405,44.81094737,44.47740541,44.07642105,43.58540541,43.05205263,42.49740541,41.96756757,41.43852632,40.92248649,40.42652632,39.89794595,39.2067027,38.30694737,37.06967568,35.2507027,32.84367568,30.05637838,27.1307027,24.376,22.04064865,20.27448649,18.98259459,18.03848649,17.4172973,16.99313514,16.72578378,16.58318919,16.53232432,16.54902703,16.64167568,16.8227027,17.14864865,17.60108108,18.16983333,18.81205405,19.49227027,20.19972973,20.95466667,21.70227027,22.45055556,23.19832432,23.91183784,24.59562162,25.28243243,25.92644444,26.52913514,27.11033333,27.65545946,28.17810811,28.66755556,29.1395,29.56243243,29.99833333,30.39610811,30.78083333,31.14594595,31.49866667,31.84810811,32.18266667,32.49094444,32.82551351,33.094,33.36411111,33.65010811,33.85466667,34.058,34.28083333,34.47438889,34.61083333,34.71672222,34.832,34.92983333,34.93394444,34.89188889,34.7995,34.64894444,34.46148571,34.25466667,34.06633333,33.91111111,33.76508571,33.62338889,33.46771429,33.24366667,33.01262857,32.7195,32.37011111,31.97017143,31.60072222,31.292,30.92354286,30.58314286,30.289,30.02411429,29.89933333,29.82165714,29.81531429,29.83883333,29.864,29.902,29.934,29.94634286,29.89022857,29.82737143,29.71411429,29.50268571,29.1652,28.6364,27.86262857,26.71929412,25.20485714,23.20542857,20.63908571,17.65588571,14.65148571,11.79714286,9.513885714,7.914914286,7.393,6.156769231,5.187555556,4.610230769,4.271333333,4.074,3.958888889,3.920222222,3.934,4.019230769,4.143333333,4.318666667,4.524,4.777076923,5.062222222,5.382769231,5.720307692,6.080740741,6.495153846,6.917769231,7.353,7.787846154,8.229,8.667846154,9.076461538,9.492769231,9.906923077,10.3236,10.696,11.06056,11.40123077,11.72169231,12.01623077,12.33153846,12.63376,12.91616,13.24984615,13.55112,13.86912,14.20288,14.52608,14.9352,15.2872,15.6692,16.0835,16.44008,16.7416,17.05024,17.362,17.65544,17.97592,18.2365,18.53688,18.758,18.93152,19.12528,19.22283333,19.358,19.52591667,19.69224,19.753,19.908,19.95584,19.99675,20.04483333,19.99925,19.92725,19.7605,19.554,19.25333333,18.80458333,18.40582609,17.903,17.43275,16.982,16.53075,16.1035,15.896,15.74475,15.48547826,15.19843478,14.84843478,14.54878261,14.36904348,14.21652174,13.91556522,13.62008696,13.4173913,13.0746087,12.88554545,12.7066087,12.55791304,12.47454545,12.39191304,12.25982609,12.07495652,11.62017391,11.11054545,10.66754545,10.29,9.944782609,9.608,9.282,9.018,8.754181818,8.520545455,8.285636364,8.103818182,7.910545455,7.593272727,7.359454545,6.974727273,6.704909091,6.515428571,6.262272727,6.106181818,5.992454545,5.81247619,5.714545455,5.580285714,5.649809524
45.66824561,45.61538462,45.60403509,45.78394737,45.94935897,46.07964912,46.16987179,46.1995614,46.25201754,46.2824359,46.31407895,46.33451754,46.34504386,46.34,46.33333333,46.31280702,46.28684211,46.25184211,46.19192982,46.15418803,46.0795614,45.99763158,45.93,45.81342105,45.71644737,45.52,45.23565789,44.81026316,44.28767544,43.74359649,43.29732456,42.97285088,42.82701754,42.73811404,42.67614035,42.6122807,42.54885965,42.47938596,42.41605263,42.41797297,42.42894737,42.46377193,42.51288288,42.56473684,42.6195614,42.69067568,42.73188596,42.76527027,42.80026316,42.82684685,42.84916667,42.85333333,42.84850877,42.82274775,42.77390351,42.70412281,42.55666667,42.4363964,42.29846847,42.12201754,41.87761261,41.59175439,41.24747748,40.86157895,40.41763158,39.875,39.28608108,38.69855856,38.12842342,37.57219298,37.03630631,36.50894737,35.93725225,35.18193694,34.18991228,32.8240991,30.86756757,28.37207207,25.63245614,22.79211712,20.28518018,18.255,16.79454955,15.76977477,15.04719298,14.60819444,14.32614035,14.16481481,14.09587719,14.095,14.14400901,14.2568018,14.46162162,14.79792793,15.25243243,15.79626126,16.41333333,17.07189189,17.73828829,18.45333333,19.16405405,19.87292793,20.57347222,21.26581081,21.91891892,22.5925,23.22716216,23.84126126,24.42135135,24.97740741,25.50166667,25.99878378,26.48220721,26.9087037,27.34216216,27.74932432,28.12592593,28.47792793,28.81337838,29.135,29.43941441,29.71736111,30.02027778,30.25153153,30.47648148,30.71675926,30.89074074,31.05277778,31.23902778,31.40414414,31.50583333,31.58462963,31.66407407,31.74666667,31.71722222,31.68425926,31.60638889,31.48092593,31.35472222,31.21611111,31.06314815,30.89018519,30.76833333,30.60796296,30.4012963,30.16904762,29.94208333,29.62356481,29.28690476,28.90925926,28.55944444,28.21305556,27.83291667,27.48133333,27.1712963,26.91509524,26.7417619,26.65,26.61157143,26.59752381,26.59462963,26.60453704,26.60257143,26.57972222,26.50895238,26.43703704,26.293,26.03092593,25.67814286,25.113,24.33523148,23.22809524,21.76857143,19.96319048,17.6182381,14.96585714,12.28533333,9.859666667,7.940380952,6.641238095,5.893387097,4.942037037,4.198518519,3.771851852,3.544444444,3.413974359,3.346604938,3.335246914,3.359938272,3.421851852,3.511234568,3.639197531,3.789166667,3.977435897,4.18775641,4.420432099,4.676794872,4.97,5.290512821,5.621025641,5.979166667,6.339807692,6.702307692,7.0575,7.417051282,7.781089744,8.157435897,8.520897436,8.891410256,9.239533333,9.564871795,9.902179487,10.2050641,10.53653333,10.85046667,11.1792,11.51746667,11.84371795,12.18366667,12.5066,12.83413333,13.2232,13.56512821,13.9076,14.30006667,14.60346667,14.86353333,15.1328,15.36446667,15.59555556,15.859,16.05413333,16.28606667,16.4672,16.57446667,16.7496,16.77666667,16.86680556,16.98866667,17.09388889,17.1284,17.23173611,17.245,17.27466667,17.30583333,17.25972222,17.20722222,17.08416667,16.94854167,16.74604167,16.41644928,16.13166667,15.75557971,15.39746377,15.075,14.72958333,14.38458333,14.17130435,13.98819444,13.72768116,13.49898551,13.2207971,12.93391304,12.76434783,12.55202899,12.25130435,11.92963768,11.69514493,11.34376812,11.15449275,10.93623188,10.75347826,10.63057971,10.53606061,10.45424242,10.34848485,9.930757576,9.469130435,9.023115942,8.661666667,8.343787879,8.058695652,7.772727273,7.536666667,7.268181818,7.1225,6.901269841,6.779545455,6.602727273,6.331060606,6.146439394,5.846746032,5.661818182,5.399545455,5.207121212,5.085,4.904285714,4.759545455,4.665793651,4.579015152,4.597619048
46.35767544,46.30803419,46.47175439,46.66719298,46.79846154,46.93565789,47.0524359,47.10973684,47.19991228,47.25730769,47.30877193,47.33697368,47.35736842,47.36141026,47.37166667,47.35078947,47.31157895,47.26877193,47.20947368,47.17606838,47.09565789,46.99561404,46.90416667,46.76921053,46.63605263,46.38890351,46.00491228,45.43429825,44.69855263,43.94109649,43.32684211,42.90232456,42.70057018,42.57390351,42.485,42.39008772,42.31263158,42.2477193,42.1872807,42.20662162,42.22916667,42.28372807,42.36036036,42.43692982,42.52114035,42.63018018,42.70236842,42.75554054,42.81850877,42.87175676,42.92083333,42.9404386,42.92324561,42.89202703,42.84298246,42.77087719,42.60236842,42.4504955,42.25896396,42.02921053,41.71572072,41.34684211,40.9027027,40.39364035,39.80061404,39.10076577,38.34774775,37.59328829,36.85765766,36.15122807,35.4777027,34.82149123,34.12774775,33.22477477,32.0370614,30.43094595,28.18527027,25.41806306,22.48745614,19.58617117,17.12851351,15.20112613,13.8627027,12.93815315,12.29824561,11.90902778,11.65679825,11.50981481,11.44017544,11.42925926,11.45585586,11.5354955,11.69031532,11.95761261,12.32472973,12.77400901,13.29333333,13.85027027,14.42828829,15.05166667,15.68274775,16.3277027,16.98194444,17.63752252,18.25878378,18.91833333,19.54328829,20.16081081,20.75162162,21.33185185,21.88222222,22.40900901,22.92423423,23.38481481,23.85378378,24.29603604,24.70907407,25.09743243,25.47427928,25.83944444,26.17576577,26.48361111,26.80736111,27.06166667,27.31074074,27.56314815,27.76416667,27.94935185,28.14763889,28.31734234,28.42361111,28.4962963,28.55490741,28.59333333,28.515,28.42777778,28.29611111,28.12666667,27.9612037,27.79888889,27.61555556,27.41574074,27.23583333,27.01592593,26.76842593,26.49628571,26.25111111,25.94416667,25.62519048,25.26074074,24.90277778,24.54777778,24.18606481,23.85571429,23.57259259,23.33185714,23.15604762,23.05083333,22.99742857,22.97585714,22.97537037,22.98453704,22.97985714,22.96731481,22.90185714,22.82944444,22.67933333,22.41953704,22.05147619,21.4817619,20.7,19.60642857,18.19333333,16.50419048,14.4017619,12.1357619,9.989,8.146571429,6.780714286,5.923761905,5.421989247,4.457469136,3.940679012,3.661419753,3.517407407,3.431410256,3.391790123,3.396296296,3.405555556,3.452037037,3.501790123,3.577037037,3.6675,3.778076923,3.900961538,4.038580247,4.188589744,4.363333333,4.558589744,4.771217949,4.995128205,5.223974359,5.454294872,5.68,5.898846154,6.131858974,6.386794872,6.630384615,6.880833333,7.117333333,7.337179487,7.566858974,7.771987179,8.015,8.2638,8.516533333,8.785866667,9.048717949,9.314666667,9.572933333,9.839533333,10.16493333,10.44070513,10.73006667,11.0444,11.27366667,11.45986667,11.6474,11.80873333,11.96131944,12.15133333,12.30086667,12.46893333,12.60346667,12.68246667,12.80273333,12.80833333,12.89145833,13.00206667,13.09361111,13.1426,13.25451389,13.27916667,13.3352,13.365,13.34986111,13.29777778,13.19833333,13.05916667,12.85125,12.555,12.28666667,11.96050725,11.66224638,11.41666667,11.19333333,10.93791667,10.77043478,10.62715278,10.40804348,10.23673913,10.06289855,9.871014493,9.77,9.622898551,9.407898551,9.145217391,8.959347826,8.679275362,8.535072464,8.401014493,8.31557971,8.297391304,8.31530303,8.331212121,8.316287879,7.971969697,7.554492754,7.204710145,6.92,6.682121212,6.461231884,6.286363636,6.145,5.960454545,5.879166667,5.787142857,5.775757576,5.657272727,5.464090909,5.365909091,5.15531746,5.011060606,4.843484848,4.711212121,4.651666667,4.564761905,4.451666667,4.446746032,4.349924242,4.466825397
41.23915789,41.05846154,41.012,41.14031579,41.28861538,41.42873684,41.51923077,41.52894737,41.59042105,41.626,41.65221053,41.66342105,41.67605263,41.66446154,41.65,41.61642105,41.58410526,41.554,41.47084211,41.43041026,41.34868421,41.25805263,41.173,41.04063158,40.93410526,40.72652632,40.41147368,39.95531579,39.38373684,38.81347368,38.35336842,37.99773684,37.85431579,37.75563158,37.68884211,37.61431579,37.54452632,37.46242105,37.38947368,37.40962162,37.41542105,37.43657895,37.48210811,37.51747368,37.56431579,37.63124324,37.66605263,37.68810811,37.72736842,37.76021622,37.788,37.794,37.77010526,37.75027027,37.70410526,37.63073684,37.47305263,37.34551351,37.19205405,37.00094737,36.7447027,36.43810526,36.07254054,35.66178947,35.18726316,34.626,34.01594595,33.39762162,32.81421622,32.24726316,31.71118919,31.182,30.61972973,29.86956757,28.86852632,27.49735135,25.5427027,23.08205405,20.45405263,17.80151351,15.53940541,13.76135135,12.5172973,11.65648649,11.052,10.67872222,10.42405263,10.27822222,10.198,10.16666667,10.18113514,10.24805405,10.38789189,10.63064865,10.97551351,11.39318919,11.881,12.40843243,12.94908108,13.54266667,14.13837838,14.74664865,15.36466667,15.98183784,16.56751351,17.193,17.79254054,18.37972973,18.93259459,19.47911111,20,20.49654054,20.98162162,21.408,21.84718919,22.25297297,22.63222222,22.98189189,23.30518919,23.62,23.91427027,24.16566667,24.44644444,24.65637838,24.85911111,25.08077778,25.23205556,25.3765,25.53416667,25.66443243,25.747,25.80266667,25.85344444,25.9,25.84533333,25.80511111,25.74233333,25.64733333,25.56133333,25.46933333,25.33511111,25.16955556,25.015,24.81777778,24.58822222,24.34468571,24.127,23.85216667,23.56622857,23.23044444,22.87866667,22.53266667,22.18277778,21.84142857,21.55188889,21.30994286,21.15948571,21.065,21.01074286,20.988,20.96922222,20.98322222,20.97142857,20.959,20.89817143,20.82444444,20.6788,20.42677778,20.0848,19.56628571,18.85011111,17.84914286,16.54342857,14.97577143,13.00777143,10.86742857,8.8436,7.119371429,5.859828571,5.083257143,4.63883871,3.757333333,3.339111111,3.095407407,2.976666667,2.897538462,2.845777778,2.835407407,2.833555556,2.857407407,2.889481481,2.949333333,3.023,3.111230769,3.217615385,3.333111111,3.451846154,3.6,3.771153846,3.940307692,4.136384615,4.328692308,4.528615385,4.729,4.928538462,5.143,5.383538462,5.619230769,5.859538462,6.10136,6.330923077,6.561846154,6.781076923,7.03088,7.27896,7.53568,7.8116,8.078153846,8.3588,8.62632,8.90016,9.21656,9.499230769,9.7776,10.08664,10.3168,10.50328,10.69832,10.86536,11.02616667,11.2172,11.35792,11.52,11.65328,11.73896,11.84664,11.85,11.90841667,11.98832,12.05533333,12.07704,12.14391667,12.15525,12.19392,12.196,12.15966667,12.112,12.023,11.92,11.77716667,11.53634783,11.34233333,11.08817391,10.85426087,10.65,10.447,10.2455,10.08930435,9.930916667,9.681652174,9.502521739,9.301913043,9.096086957,8.98173913,8.841565217,8.588869565,8.321826087,8.110434783,7.835826087,7.676434783,7.529826087,7.441565217,7.391652174,7.393636364,7.382818182,7.330636364,7.038909091,6.638608696,6.31826087,6.04,5.854272727,5.660695652,5.501454545,5.37,5.206,5.164,5.05447619,5.016363636,4.955090909,4.771818182,4.697909091,4.50247619,4.394727273,4.199363636,4.131272727,4.055,3.98,3.913454545,3.89352381,3.794818182,3.854952381
43.26710526,43.48368421,43.76605263,43.98078947,44.14635965,44.28710526,44.39495614,44.44881579,44.53368421,44.59486842,44.63679825,44.66526316,44.67938596,44.68166667,44.68530702,44.68311404,44.62890351,44.60292793,44.53,44.50894737,44.43947368,44.36070175,44.28447368,44.16429825,44.05850877,43.87324561,43.575,43.12644737,42.52916667,41.8545045,41.28035088,40.83789474,40.64377193,40.52094595,40.42824561,40.34907895,40.28283784,40.21052632,40.14078947,40.14891892,40.16048246,40.18626126,40.23394737,40.28099099,40.33416667,40.40986842,40.46921053,40.50220721,40.54732456,40.59436937,40.62508772,40.64405405,40.6322973,40.60078947,40.54947368,40.48552632,40.33869369,40.20333333,40.04189189,39.84114035,39.56608108,39.24833333,38.87157895,38.43864865,37.93333333,37.32486486,36.67285088,35.98103604,35.33518018,34.69745614,34.10018018,33.51912281,32.91540541,32.13905405,31.12921053,29.74702703,27.78445946,25.235,22.36675676,19.47761261,16.87414414,14.77297297,13.26810811,12.21630631,11.48162162,11.02162162,10.70918919,10.51783784,10.41720721,10.37468468,10.38427928,10.44328829,10.57720721,10.81873874,11.17279279,11.62458333,12.15247748,12.71792793,13.31297297,13.96,14.61612613,15.28787037,15.97644144,16.64891892,17.32135135,17.98900901,18.65148148,19.28027027,19.89731481,20.49166667,21.07364865,21.61944444,22.14763889,22.62774775,23.10916667,23.55238739,23.97555556,24.36662162,24.72777778,25.08288288,25.41416667,25.70111111,26.00914414,26.25962963,26.50324074,26.74837838,26.9312963,27.11125,27.30856481,27.46875,27.58861111,27.66921296,27.7537037,27.82013889,27.80592593,27.76537037,27.68791667,27.57810185,27.45895238,27.33185185,27.18833333,27.03074074,26.86995238,26.6912963,26.48666667,26.21861111,25.962,25.67222222,25.34916667,24.98414286,24.61277778,24.28333333,23.89409524,23.52557143,23.22333333,22.94547619,22.78722222,22.66338095,22.59842857,22.57152778,22.54833333,22.55547619,22.56861111,22.5622381,22.49157143,22.40138095,22.2447619,21.98895238,21.59733333,21.02580952,20.23509524,19.11323529,17.66785714,15.83595238,13.63361905,11.23657143,8.970428571,7.042809524,5.684095238,4.870095238,4.228333333,3.476794872,3.060864198,2.848141026,2.734074074,2.676666667,2.632222222,2.631481481,2.636111111,2.664871795,2.702037037,2.761666667,2.832051282,2.923205128,3.035679012,3.156666667,3.298461538,3.453765432,3.641987179,3.839423077,4.056666667,4.274102564,4.502692308,4.745512821,4.982564103,5.230641026,5.498205128,5.777133333,6.046666667,6.321133333,6.580897436,6.847051282,7.105192308,7.390512821,7.6854,7.971266667,8.290641026,8.5974,8.915066667,9.235066667,9.539066667,9.901666667,10.22066667,10.54666667,10.88104167,11.16453333,11.3758,11.58026667,11.78277778,11.97126667,12.18033333,12.34166667,12.52553333,12.657,12.75193333,12.85253333,12.88152778,12.94666667,13.05409722,13.1592,13.18972222,13.26625,13.2848,13.31645833,13.33979167,13.29652778,13.241875,13.13583333,13.00583333,12.81569444,12.53208333,12.30101449,11.98041667,11.69375,11.44,11.18833333,10.9175,10.743125,10.56972222,10.32594203,10.10536232,9.893913043,9.660144928,9.498405797,9.322318841,9.036521739,8.735217391,8.506304348,8.195,8.001212121,7.856086957,7.744637681,7.692575758,7.650869565,7.614057971,7.47173913,7.073623188,6.639848485,6.309166667,6.03,5.77884058,5.5575,5.366969697,5.226666667,5.101515152,4.969393939,4.853030303,4.784090909,4.700151515,4.516363636,4.386060606,4.147878788,3.975984848,3.858174603,3.718484848,3.625909091,3.565681818,3.46968254,3.403484848,3.365,3.442142857
45.36245614,45.56517544,45.8125,46.01057018,46.13995614,46.24934211,46.37837719,46.45486842,46.54368421,46.59096491,46.64548246,46.67982456,46.68785088,46.68166667,46.6904386,46.67942982,46.62644737,46.5781982,46.49017544,46.47482456,46.40868421,46.32245614,46.24535088,46.11526316,45.99263158,45.7652193,45.41105263,44.88631579,44.2004386,43.48373874,42.90201754,42.47368421,42.30429825,42.17355856,42.08570175,42.01,41.92666667,41.84482456,41.77508772,41.78414414,41.79320175,41.81112613,41.85815789,41.90572072,41.9525,42.03135965,42.09219298,42.13382883,42.1779386,42.22671171,42.26254386,42.28373874,42.27684685,42.23929825,42.17394737,42.10464912,41.94207207,41.78973684,41.60653153,41.38175439,41.05927928,40.69927928,40.28,39.80432432,39.24210526,38.56882883,37.8602193,37.13734234,36.43891892,35.77736842,35.15702703,34.54929825,33.89626126,33.02995495,31.89745614,30.36648649,28.16774775,25.40603604,22.40310811,19.4818018,16.92833333,14.91121622,13.49427928,12.50441441,11.8068018,11.35581081,11.05117117,10.85716216,10.74527027,10.69671171,10.6995045,10.76076577,10.89693694,11.14864865,11.50945946,11.96277778,12.48369369,13.04689189,13.64617117,14.30111111,14.95963964,15.64314815,16.33932432,17.02603604,17.70459459,18.39671171,19.06944444,19.71563063,20.34814815,20.95481982,21.55324324,22.11527778,22.65902778,23.15977477,23.66416667,24.13121622,24.56805556,24.97117117,25.35333333,25.72108108,26.06041667,26.36976852,26.70283784,26.97148148,27.22972222,27.49788288,27.69310185,27.88125,28.08421296,28.25962963,28.38486111,28.48328704,28.59324074,28.68847222,28.69967593,28.69287037,28.65083333,28.57287037,28.47757143,28.36537037,28.23111111,28.07833333,27.90971429,27.72125,27.50785714,27.23305556,26.9657619,26.65097222,26.29398148,25.88680952,25.48268519,25.11647619,24.69257143,24.29790476,23.98583333,23.71947619,23.55944444,23.42880952,23.3567619,23.33180556,23.31166667,23.31357143,23.32055556,23.31719048,23.23928571,23.14061905,22.97085714,22.6927619,22.26333333,21.65147619,20.80642857,19.60401961,18.09190476,16.19857143,13.92128571,11.50919048,9.294904762,7.478571429,6.232857143,5.526095238,4.951510417,4.213461538,3.810617284,3.598910256,3.477160494,3.406666667,3.358888889,3.347037037,3.342222222,3.361153846,3.394259259,3.446111111,3.500384615,3.584294872,3.680617284,3.790769231,3.914487179,4.054320988,4.219358974,4.403397436,4.6025,4.800833333,5.007564103,5.23025641,5.446538462,5.677435897,5.944487179,6.2054,6.471666667,6.744466667,7.00275641,7.270384615,7.518141026,7.789102564,8.077,8.346,8.664615385,8.9612,9.272333333,9.595533333,9.902866667,10.28273333,10.618,10.97233333,11.32770833,11.62793333,11.87646667,12.1144,12.355,12.5838,12.84786667,13.05666667,13.2928,13.45533333,13.57813333,13.693,13.72361111,13.79833333,13.89402778,13.988,14.00527778,14.07416667,14.09766667,14.09666667,14.11923611,14.07111111,14.02270833,13.91875,13.77944444,13.59416667,13.31430556,13.09811594,12.79666667,12.50854167,12.25,11.979375,11.7175,11.555625,11.38006944,11.12869565,10.89246377,10.63855072,10.40072464,10.22652174,10.03514493,9.737608696,9.448405797,9.216884058,8.909565217,8.723333333,8.595144928,8.462246377,8.423333333,8.419782609,8.34384058,8.21942029,7.791666667,7.352424242,7.018636364,6.74,6.525507246,6.315833333,6.094242424,5.956666667,5.808484848,5.744393939,5.649848485,5.583636364,5.481742424,5.324545455,5.193106061,4.973030303,4.801212121,4.671984127,4.596060606,4.49530303,4.40030303,4.342539683,4.355151515,4.282301587,4.354047619
43.62105263,43.78631579,44.03952632,44.21105263,44.32815789,44.42589474,44.51557895,44.55247368,44.62431579,44.65557895,44.68663158,44.70589474,44.71689474,44.713,44.70910526,44.69794737,44.65978947,44.63848649,44.57463158,44.56568421,44.50768421,44.43136842,44.35894737,44.25852632,44.17305263,44.00926316,43.76452632,43.39405263,42.89,42.32108108,41.84042105,41.47452632,41.33989474,41.25972973,41.20526316,41.16678947,41.12837838,41.07894737,41.03368421,41.0567027,41.07257895,41.10043243,41.148,41.19189189,41.238,41.30315789,41.35210526,41.37789189,41.40647368,41.44897297,41.47178947,41.47437838,41.46475676,41.43452632,41.394,41.33605263,41.19621622,41.08157895,40.93967568,40.76936842,40.54091892,40.27562162,39.95094737,39.58605405,39.14736842,38.61772973,38.04594737,37.44691892,36.87227027,36.30221053,35.74616216,35.19768421,34.64356757,33.92351351,32.98726316,31.69286486,29.82989189,27.39216216,24.6172973,21.75686486,19.13783784,17.00237838,15.47345946,14.42751351,13.72081081,13.30902703,13.06508108,12.94891892,12.91572973,12.94778378,13.01281081,13.13356757,13.32372973,13.64551351,14.08875676,14.63733333,15.25681081,15.91335135,16.59421622,17.32466667,18.04902703,18.78388889,19.52205405,20.2347027,20.94297297,21.63875676,22.31577778,22.95643243,23.575,24.16837838,24.74924324,25.27866667,25.78816667,26.2487027,26.71766667,27.1467027,27.53733333,27.90372973,28.24666667,28.57967568,28.8865,29.15583333,29.45172973,29.67866667,29.89166667,30.12318919,30.28511111,30.447,30.62438889,30.77666667,30.87883333,30.94416667,31.01916667,31.08,31.05922222,31.01877778,30.9495,30.85488889,30.7512,30.62311111,30.482,30.32777778,30.16954286,30.00044444,29.79714286,29.527,29.28325714,28.98166667,28.64933333,28.27291429,27.89122222,27.55228571,27.14645714,26.77142857,26.447,26.13171429,25.946,25.7916,25.69771429,25.64216667,25.602,25.57571429,25.55933333,25.52308571,25.42514286,25.30788571,25.12171429,24.83611429,24.4244,23.83125714,23.00285714,21.81858824,20.30171429,18.34628571,15.95125714,13.30862857,10.75177143,8.493314286,6.821885714,5.755942857,5.1493125,4.275384615,3.69637037,3.378769231,3.209703704,3.124,3.079333333,3.085777778,3.106,3.173692308,3.255333333,3.37,3.508307692,3.679538462,3.880296296,4.093538462,4.322615385,4.581703704,4.873923077,5.183769231,5.509,5.827846154,6.170307692,6.518,6.853692308,7.200769231,7.564384615,7.93696,8.278,8.63272,8.959692308,9.296923077,9.621846154,9.969538462,10.31752,10.66064,11.03246154,11.39208,11.74184,12.10384,12.43792,12.85088,13.198,13.55,13.92075,14.2232,14.46456,14.68992,14.90866667,15.10672,15.33024,15.4765,15.6684,15.8,15.8916,16.00328,16.026,16.084,16.18258333,16.27592,16.284,16.368,16.3672,16.3935,16.39525,16.3335,16.26075,16.1485,15.99533333,15.80616667,15.53383333,15.29104348,14.958,14.6595,14.371,14.10875,13.81,13.61525,13.43433333,13.14973913,12.88643478,12.64565217,12.37730435,12.21478261,12.00026087,11.64921739,11.33704348,11.09556522,10.70808696,10.51218182,10.30495652,10.14286957,10.06127273,9.991217391,9.868869565,9.682086957,9.253043478,8.832,8.432181818,8.078,7.803130435,7.543,7.274181818,7.094,6.885636364,6.745818182,6.558727273,6.454545455,6.300636364,6.05,5.872181818,5.607454545,5.395272727,5.231809524,5.040636364,4.904545455,4.809636364,4.683047619,4.606909091,4.441619048,4.564190476
47.52324561,47.48568376,47.47570175,47.60763158,47.70230769,47.79482456,47.87307692,47.89561404,47.94210526,47.96641026,47.99565789,48.00899123,48.0127193,48.01128205,48.005,47.97359649,47.94377193,47.915,47.85157895,47.82316239,47.75868421,47.68565789,47.62,47.50403509,47.41885965,47.24131579,46.97210526,46.57850877,46.08026316,45.56421053,45.14442982,44.83960526,44.70254386,44.61315789,44.54578947,44.47184211,44.39929825,44.34491228,44.29254386,44.30103604,44.30894737,44.34008772,44.3877027,44.42535088,44.47184211,44.53756757,44.57701754,44.59932432,44.62464912,44.64518018,44.66833333,44.67197368,44.6577193,44.62207207,44.57267544,44.50789474,44.37087719,44.25648649,44.12171171,43.95614035,43.72207207,43.45324561,43.13554054,42.77622807,42.35412281,41.83725225,41.28009009,40.72369369,40.19036036,39.65789474,39.14842342,38.65307018,38.12009009,37.40734234,36.45057018,35.13162162,33.22941441,30.77824324,28.06921053,25.2381982,22.71274775,20.64743243,19.15031532,18.09963964,17.35513158,16.89912037,16.60451754,16.4362963,16.36280702,16.35481481,16.39378378,16.5027027,16.69936937,17.03657658,17.49603604,18.0459009,18.66541667,19.32315315,19.98828829,20.69722222,21.40238739,22.1131982,22.81916667,23.51378378,24.16247748,24.84083333,25.48027027,26.10454955,26.69265766,27.2637037,27.79944444,28.30328829,28.78707207,29.21277778,29.64851351,30.0463964,30.41759259,30.76806306,31.10121622,31.41611111,31.70545045,31.96333333,32.24287037,32.45941441,32.65703704,32.87111111,33.02319444,33.17134259,33.33708333,33.47468468,33.5525,33.61203704,33.65851852,33.7,33.61666667,33.53203704,33.41027778,33.26351852,33.12509259,32.98888889,32.82157407,32.64037037,32.495,32.3037037,32.08898148,31.84957143,31.63902778,31.36,31.08047619,30.75351852,30.44111111,30.12569444,29.78796296,29.4867619,29.23509259,29.00633333,28.84704762,28.75166667,28.69438095,28.66252381,28.65722222,28.66027778,28.64985714,28.62472222,28.56185714,28.49592593,28.34933333,28.08490741,27.73166667,27.173,26.39523148,25.28595238,23.82880952,22.01795238,19.6392381,16.93038095,14.14133333,11.55885714,9.456095238,7.984761905,7.106021505,6.159567901,5.274567901,4.739876543,4.446666667,4.274871795,4.199197531,4.196790123,4.227654321,4.322716049,4.437283951,4.597716049,4.786666667,5.013717949,5.268141026,5.545802469,5.841923077,6.185,6.543397436,6.915576923,7.310897436,7.720576923,8.110961538,8.500833333,8.885769231,9.270192308,9.673846154,10.06346154,10.43608974,10.79286667,11.12371795,11.48051282,11.80102564,12.17546667,12.54933333,12.9304,13.3366,13.69929487,14.07766667,14.43593333,14.78506667,15.205,15.55365385,15.89733333,16.28546667,16.57893333,16.8054,17.03966667,17.22713333,17.3825,17.59666667,17.72613333,17.89913333,18.0146,18.07786667,18.22813333,18.21333333,18.31555556,18.4526,18.56972222,18.6092,18.7325,18.75979167,18.82246667,18.84833333,18.81416667,18.76,18.62541667,18.46979167,18.24840278,17.89782609,17.61472222,17.22398551,16.88362319,16.5925,16.306875,16.01916667,15.80913043,15.61854167,15.30949275,15.04913043,14.79391304,14.54666667,14.4357971,14.26434783,13.92065217,13.59876812,13.33746377,12.94681159,12.72318841,12.51355072,12.35217391,12.24608696,12.16090909,12.07833333,12.00590909,11.57833333,11.06471014,10.60615942,10.25166667,9.917575758,9.599927536,9.318333333,9.083333333,8.813484848,8.628333333,8.41952381,8.278787879,8.106212121,7.761666667,7.574848485,7.211428571,7.02530303,6.768787879,6.516515152,6.384166667,6.171904762,6.043181818,5.947460317,5.814015152,5.851111111
