1000,1005,1010,1015,1020,1025,1030,1035,1040,1045,1050,1055,1060,1065,1070,1075,1080,1085,1090,1095,1100,1105,1110,1115,1120,1125,1130,1135,1140,1145,1150,1155,1160,1165,1170,1175,1180,1185,1190,1195,1200,1205,1210,1215,1220,1225,1230,1235,1240,1245,1250,1255,1260,1265,1270,1275,1280,1285,1290,1295,1300,1305,1310,1315,1320,1325,1330,1335,1340,1345,1350,1355,1360,1365,1370,1375,1380,1385,1390,1395,1400,1405,1410,1415,1420,1425,1430,1435,1440,1445,1450,1455,1460,1465,1470,1475,1480,1485,1490,1495,1500,1505,1510,1515,1520,1525,1530,1535,1540,1545,1550,1555,1560,1565,1570,1575,1580,1585,1590,1595,1600,1605,1610,1615,1620,1625,1630,1635,1640,1645,1650,1655,1660,1665,1670,1675,1680,1685,1690,1695,1700,1705,1710,1715,1720,1725,1730,1735,1740,1745,1750,1755,1760,1765,1770,1775,1780,1785,1790,1795,1800,1805,1810,1815,1820,1825,1830,1835,1840,1845,1850,1855,1860,1865,1870,1875,1880,1885,1890,1895,1900,1905,1910,1915,1920,1925,1930,1935,1940,1945,1950,1955,1960,1965,1970,1975,1980,1985,1990,1995,2000,2005,2010,2015,2020,2025,2030,2035,2040,2045,2050,2055,2060,2065,2070,2075,2080,2085,2090,2095,2100,2105,2110,2115,2120,2125,2130,2135,2140,2145,2150,2155,2160,2165,2170,2175,2180,2185,2190,2195,2200,2205,2210,2215,2220,2225,2230,2235,2240,2245,2250,2255,2260,2265,2270,2275,2280,2285,2290,2295,2300,2305,2310,2315,2320,2325,2330,2335,2340,2345,2350,2355,2360,2365,2370,2375,2380,2385,2390,2395,2400,2405,2410,2415,2420,2425,2430,2435,2440,2445,2450,2455,2460,2465,2470,2475,2480,2485,2490,2495,2500
41.76176692,41.98116541,42.24635338,42.48037594,42.63827068,42.78958647,42.9012406,42.95669173,43.03676692,43.08684211,43.11928571,43.14755639,43.16154135,43.15285714,43.14650376,43.13496241,43.08157895,43.03857143,42.93684211,42.91503759,42.83488722,42.7456391,42.65969925,42.52172932,42.40586466,42.17857143,41.84492481,41.35067669,40.72567669,40.04247104,39.48676692,39.06593985,38.88330827,38.74849421,38.65578947,38.57605263,38.49888031,38.40834586,38.33315789,38.35065637,38.36327068,38.39050193,38.44105263,38.48111969,38.52214286,38.59778195,38.64285714,38.67196911,38.71003759,38.75795367,38.79360902,38.81409266,38.80606178,38.77917293,38.72654135,38.65676692,38.50223938,38.36548872,38.19405405,37.98473684,37.69849421,37.37057915,36.97518797,36.52741313,36.00917293,35.39444015,34.73755639,34.05498069,33.41864865,32.80503759,32.22872587,31.66075188,31.07073359,30.29135135,29.28522556,27.91366795,25.94393822,23.45660232,20.75196911,18.1023166,15.78173745,13.94312741,12.65123552,11.74776062,11.10096525,10.6892278,10.41162162,10.23150579,10.13042471,10.0827027,10.07737452,10.12146718,10.23451737,10.44857143,10.75745174,11.14928571,11.60702703,12.10374517,12.62374517,13.19857143,13.77656371,14.38071429,14.9984556,15.6007722,16.19382239,16.81667954,17.42126984,18.0007722,18.5665873,19.11216216,19.65745174,20.16960317,20.66428571,21.11119691,21.5702381,21.99637066,22.3897619,22.7572973,23.09714286,23.42795367,23.73595238,23.99642857,24.2865251,24.51380952,24.73142857,24.96239382,25.12202381,25.28392857,25.45222222,25.59321429,25.68809524,25.75329365,25.8197619,25.87880952,25.8659127,25.8375,25.7825,25.6965873,25.60485714,25.50047619,25.37785714,25.22857143,25.05236735,24.87222222,24.67897959,24.43428571,24.20812245,23.93210317,23.63396825,23.29506122,22.94206349,22.62518367,22.2617551,21.91257143,21.625,21.36746939,21.23952381,21.13253061,21.07889796,21.06035714,21.04,21.0577551,21.07095238,21.06689796,21.00322449,20.91783673,20.76428571,20.51114286,20.13914286,19.60253061,18.85926531,17.79747899,16.46816327,14.79387755,12.79710204,10.6704898,8.711795918,7.065714286,5.893714286,5.193591837,4.591294643,3.856593407,3.448835979,3.218076923,3.098941799,3.034285714,2.995079365,2.989047619,2.997142857,3.02956044,3.074285714,3.139047619,3.20978022,3.30021978,3.411005291,3.533626374,3.66021978,3.802857143,3.971648352,4.150934066,4.337142857,4.524725275,4.723186813,4.925384615,5.125054945,5.337912088,5.568461538,5.810457143,6.04,6.284914286,6.513131868,6.748901099,6.971318681,7.219010989,7.468857143,7.714171429,7.996263736,8.267371429,8.545257143,8.835142857,9.105314286,9.443428571,9.726857143,10.02571429,10.33535714,10.58925714,10.78394286,10.97337143,11.17047619,11.35605714,11.56725714,11.72821429,11.90765714,12.04428571,12.14194286,12.22451429,12.24547619,12.29714286,12.37922619,12.4676,12.47619048,12.52714286,12.52668571,12.52642857,12.5227381,12.46690476,12.38660714,12.2725,12.14809524,12.01,11.8152381,11.65161491,11.39857143,11.15875,10.94214286,10.73214286,10.50035714,10.35785714,10.17940476,9.949627329,9.770434783,9.552236025,9.330248447,9.192173913,9.030434783,8.756770186,8.473850932,8.283602484,8.005776398,7.846233766,7.700248447,7.596583851,7.565714286,7.554285714,7.542049689,7.396832298,7.02826087,6.645324675,6.337337662,6.102857143,5.865217391,5.695714286,5.523441558,5.425714286,5.281948052,5.215974026,5.075584416,5.06025974,4.957662338,4.807987013,4.665714286,4.466883117,4.314090909,4.189387755,4.059805195,3.986753247,3.920909091,3.83877551,3.789350649,3.736802721,3.804353741
44.43364035,44.67364035,44.97719298,45.24381579,45.44118421,45.60337719,45.71447368,45.76513158,45.83947368,45.8745614,45.91013158,45.93859649,45.95649123,45.94583333,45.93381579,45.91486842,45.86925439,45.8409009,45.76070175,45.71096491,45.61684211,45.52517544,45.43210526,45.29017544,45.17640351,44.97092105,44.64855263,44.17035088,43.5475,42.86454955,42.28061404,41.82666667,41.62991228,41.50274775,41.41385965,41.34464912,41.26725225,41.19307018,41.115,41.11815315,41.13096491,41.16626126,41.22377193,41.2681982,41.32416667,41.39986842,41.45447368,41.48806306,41.52552632,41.56882883,41.60438596,41.61936937,41.60608108,41.58219298,41.53877193,41.46855263,41.3063964,41.16701754,40.99531532,40.78605263,40.50734234,40.1822973,39.77877193,39.3163964,38.78570175,38.15509009,37.47820175,36.77612613,36.10495495,35.4577193,34.84099099,34.24385965,33.61954955,32.80004505,31.7372807,30.30153153,28.22963964,25.57369369,22.6531982,19.75621622,17.18734234,15.14833333,13.7104955,12.7104955,12.01211712,11.57815315,11.29256757,11.12018018,11.03225225,11.00418919,11.02184685,11.08905405,11.23252252,11.4872973,11.85216216,12.31236111,12.84004505,13.41103604,14.00959459,14.66111111,15.3218018,15.99611111,16.68238739,17.35783784,18.01653153,18.70405405,19.36666667,19.99531532,20.60833333,21.20171171,21.78423423,22.33351852,22.86277778,23.34518018,23.83166667,24.27774775,24.70513889,25.09986486,25.46,25.81054054,26.13777778,26.43092593,26.74108108,26.99351852,27.22916667,27.47009009,27.64828704,27.82291667,28.00597222,28.15601852,28.26430556,28.33884259,28.41407407,28.47680556,28.45944444,28.41824074,28.34625,28.24069444,28.12880952,27.99685185,27.845,27.68462963,27.4967619,27.30625,27.09642857,26.83472222,26.58047619,26.27810185,25.95009259,25.56942857,25.18726852,24.84414286,24.44442857,24.06914286,23.7475,23.45480952,23.29777778,23.17542857,23.12204762,23.10138889,23.08166667,23.08761905,23.10111111,23.09804762,23.02147619,22.92285714,22.75752381,22.48266667,22.06933333,21.47614286,20.65361905,19.48117647,18.00166667,16.15214286,13.89828571,11.50438095,9.307095238,7.462142857,6.157238095,5.377857143,4.821354167,4.055,3.6,3.341858974,3.197592593,3.121666667,3.071666667,3.046481481,3.046111111,3.080128205,3.125740741,3.2,3.284230769,3.395833333,3.526111111,3.664487179,3.81525641,3.987469136,4.185833333,4.396089744,4.624166667,4.848141026,5.084935897,5.326666667,5.570897436,5.821538462,6.092820513,6.372133333,6.64,6.919333333,7.180512821,7.445384615,7.701474359,7.976666667,8.2586,8.5298,8.847820513,9.148533333,9.4476,9.7546,10.05633333,10.425,10.72766667,11.05066667,11.38645833,11.66986667,11.8858,12.09693333,12.30111111,12.51146667,12.7422,12.91041667,13.1152,13.263,13.36193333,13.46693333,13.49006944,13.54166667,13.63916667,13.73533333,13.74388889,13.80291667,13.79953333,13.80208333,13.79652778,13.72472222,13.63854167,13.50875,13.37,13.20569444,12.97458333,12.77898551,12.47375,12.21041667,11.96916667,11.734375,11.48791667,11.305625,11.13319444,10.88036232,10.66094203,10.41985507,10.19949275,10.02666667,9.853043478,9.554275362,9.254782609,9.045072464,8.742246377,8.557651515,8.397463768,8.279347826,8.242727273,8.219130435,8.173188406,8.031376812,7.629855072,7.20469697,6.875454545,6.606666667,6.356956522,6.1525,5.950378788,5.805,5.663636364,5.623787879,5.490454545,5.398939394,5.286439394,5.05780303,4.952954545,4.724090909,4.588484848,4.42984127,4.314318182,4.214393939,4.13719697,4.003571429,3.984848485,3.958412698,4.019206349
44.89636842,44.90902564,44.88273684,44.97168421,45.06353846,45.15752632,45.23553846,45.26747368,45.33042105,45.36692308,45.39268421,45.40263158,45.40605263,45.40553846,45.396,45.36810526,45.33547368,45.29989474,45.23652632,45.21882051,45.15884211,45.08389474,45.014,44.90168421,44.79568421,44.60926316,44.33189474,43.90721053,43.37194737,42.84052632,42.43105263,42.14663158,42.04268421,41.97315789,41.91673684,41.85010526,41.79768421,41.74863158,41.70715789,41.72875676,41.73378947,41.75815789,41.79654054,41.82536842,41.85905263,41.91086486,41.95131579,41.96702703,41.99494737,42.02124324,42.044,42.05489474,42.03652632,42.00632432,41.95647368,41.89863158,41.75673684,41.63389189,41.48259459,41.30252632,41.05956757,40.77294737,40.44491892,40.06921053,39.62873684,39.0967027,38.52643243,37.96313514,37.41848649,36.88652632,36.37059459,35.86021053,35.3172973,34.59145946,33.61005263,32.22908108,30.24886486,27.73081081,24.97842105,22.15005405,19.68318919,17.7032973,16.29362162,15.30848649,14.62078947,14.19477778,13.91610526,13.75033333,13.67621053,13.66622222,13.70864865,13.81654054,14.01945946,14.35378378,14.81108108,15.35659459,15.9775,16.64059459,17.31832432,18.046,18.77324324,19.50351351,20.24,20.96027027,21.64324324,22.362,23.04097297,23.69789189,24.3207027,24.928,25.498,26.04102703,26.56724324,27.02622222,27.49454054,27.92210811,28.31177778,28.66956757,29.01216216,29.33666667,29.63848649,29.89866667,30.17677778,30.39275676,30.59822222,30.817,30.9725,31.12111111,31.29116667,31.43794595,31.532,31.61177778,31.69844444,31.77,31.747,31.72977778,31.67366667,31.59088889,31.50888889,31.416,31.28711111,31.13466667,31.016,30.84755556,30.635,30.39731429,30.17366667,29.87566667,29.56251429,29.20155556,28.85,28.49616667,28.10933333,27.76451429,27.48311111,27.2312,27.03491429,26.898,26.81411429,26.76148571,26.73,26.72322222,26.69948571,26.65622222,26.56148571,26.47333333,26.294,26.00011111,25.6216,25.04034286,24.24644444,23.12342857,21.63628571,19.80834286,17.45948571,14.82188571,12.1464,9.716742857,7.797885714,6.4876,5.744967742,4.98362963,4.22437037,3.766962963,3.519333333,3.373538462,3.281925926,3.257259259,3.259111111,3.324962963,3.408,3.530296296,3.68,3.866307692,4.075769231,4.303333333,4.548923077,4.836,5.138384615,5.455307692,5.807769231,6.156307692,6.510230769,6.867,7.230923077,7.598846154,7.988307692,8.376615385,8.769076923,9.15104,9.514461538,9.894461538,10.24638462,10.63792,11.0224,11.41952,11.83672,12.22315385,12.6272,13.01344,13.40736,13.85824,14.23915385,14.61872,15.04456,15.36688,15.64568,15.92408,16.1552,16.36908333,16.6124,16.8028,17.01768,17.16416,17.25512,17.39896,17.394,17.46725,17.57824,17.669,17.67744,17.76,17.75625,17.78368,17.792,17.738,17.69733333,17.6005,17.467,17.30166667,17.0286087,16.82766667,16.51,16.22921739,15.975,15.724,15.439,15.2266087,15.03116667,14.69947826,14.44156522,14.15791304,13.87834783,13.70434783,13.464,13.08834783,12.7253913,12.43826087,12.04565217,11.78678261,11.5533913,11.34582609,11.18356522,11.08072727,11.01236364,10.88336364,10.43472727,9.943043478,9.512347826,9.146,8.782727273,8.521565217,8.260363636,8.008,7.782181818,7.631,7.416761905,7.256,7.093454545,6.808545455,6.685545455,6.350571429,6.135818182,5.902363636,5.662363636,5.531,5.323428571,5.232545455,5.151142857,4.954,5.014380952
41.39399123,41.54035088,41.73811404,41.89039474,42.00552632,42.10135965,42.16320175,42.18635965,42.22824561,42.24236842,42.25276316,42.26078947,42.25828947,42.23916667,42.22140351,42.19973684,42.16127193,42.12923423,42.06122807,42.02649123,41.96035088,41.88578947,41.8154386,41.71745614,41.63377193,41.47135965,41.23232456,40.89232456,40.45877193,39.96927928,39.54789474,39.23307018,39.09140351,38.99945946,38.93837719,38.87758772,38.81581081,38.75263158,38.70131579,38.70018018,38.69653509,38.71103604,38.73798246,38.76657658,38.80083333,38.84552632,38.88491228,38.89900901,38.91859649,38.94135135,38.95473684,38.95324324,38.93941441,38.91552632,38.86947368,38.80973684,38.67864865,38.57210526,38.44171171,38.28640351,38.07454955,37.83486486,37.53859649,37.1972973,36.80219298,36.32599099,35.81184211,35.28031532,34.76905405,34.26640351,33.7868018,33.32535088,32.83081081,32.17734234,31.3195614,30.14716216,28.42153153,26.15009009,23.59265766,20.97945946,18.59157658,16.64518018,15.23369369,14.25283784,13.56752252,13.15004505,12.87972973,12.7281982,12.66063063,12.65094595,12.68220721,12.76968468,12.93063063,13.2113964,13.60554054,14.0925,14.64108108,15.22351351,15.82459459,16.47611111,17.11977477,17.76851852,18.42824324,19.06337838,19.6909009,20.31846847,20.92,21.49351351,22.04953704,22.57968468,23.09157658,23.57148148,24.03180556,24.44463964,24.85916667,25.24288288,25.59638889,25.9209009,26.22888889,26.52342342,26.79944444,27.04333333,27.3072973,27.50222222,27.69648148,27.89914414,28.04273148,28.18083333,28.33601852,28.46634259,28.54611111,28.59296296,28.65430556,28.70125,28.67856481,28.63824074,28.56791667,28.47981481,28.38433333,28.27833333,28.15194444,28.00666667,27.837,27.64805556,27.44880952,27.20722222,26.98438095,26.73731481,26.46527778,26.13438095,25.80694444,25.50142857,25.1467619,24.82285714,24.55083333,24.30014286,24.15111111,24.03666667,23.97371429,23.94625,23.92333333,23.91714286,23.91944444,23.91138095,23.83480952,23.74419048,23.59733333,23.35361905,22.97433333,22.43428571,21.68866667,20.61156863,19.24095238,17.49333333,15.27414286,12.82909524,10.53585714,8.526952381,7.039666667,6.104952381,5.4640625,4.577435897,4.012037037,3.688782051,3.521358025,3.44,3.389074074,3.389814815,3.407222222,3.46474359,3.540740741,3.643888889,3.761794872,3.915,4.092098765,4.277692308,4.489230769,4.711419753,4.968717949,5.240064103,5.524166667,5.80224359,6.089166667,6.387820513,6.674615385,6.97,7.291089744,7.614266667,7.908333333,8.216733333,8.498974359,8.787692308,9.059615385,9.353846154,9.657933333,9.947466667,10.27230769,10.58526667,10.89686667,11.2108,11.5168,11.885,12.18833333,12.50433333,12.83270833,13.10213333,13.3076,13.5054,13.70166667,13.88473333,14.0936,14.24458333,14.42593333,14.54733333,14.62466667,14.70773333,14.72527778,14.77833333,14.860625,14.948,14.96166667,15.03541667,15.046,15.06041667,15.0725,15.025625,14.96208333,14.85166667,14.71,14.51388889,14.24423611,14.03391304,13.72958333,13.465625,13.24916667,13.045625,12.79708333,12.651875,12.47270833,12.20130435,11.99014493,11.74695652,11.50144928,11.37884058,11.21362319,10.89137681,10.59782609,10.38057971,10.06681159,9.889090909,9.704855072,9.611231884,9.552575758,9.525797101,9.463478261,9.311956522,8.92057971,8.486212121,8.111590909,7.836666667,7.572173913,7.364166667,7.119242424,6.97,6.79530303,6.656363636,6.517575758,6.464545455,6.346742424,6.113106061,5.974242424,5.720757576,5.514166667,5.372301587,5.210606061,5.113333333,5.025,4.865714286,4.817272727,4.761349206,4.841349206
42.79873684,42.94721053,43.14505263,43.29768421,43.39636842,43.49563158,43.57642105,43.602,43.66463158,43.70073684,43.72042105,43.73615789,43.74289474,43.736,43.74215789,43.74089474,43.69578947,43.67135135,43.59568421,43.59905263,43.55452632,43.48684211,43.44242105,43.34178947,43.28152632,43.14415789,42.94152632,42.63273684,42.22310526,41.75454054,41.35757895,41.02094737,40.90873684,40.80751351,40.73052632,40.66905263,40.61189189,40.54126316,40.47494737,40.49162162,40.50073684,40.51324324,40.54221053,40.56956757,40.606,40.65663158,40.68821053,40.7,40.72773684,40.76216216,40.78073684,40.79248649,40.77810811,40.75463158,40.70726316,40.65936842,40.53372973,40.44294737,40.33464865,40.19378947,39.99637838,39.76021622,39.48957895,39.18772973,38.83515789,38.38789189,37.89689474,37.38054054,36.91118919,36.43315789,35.97616216,35.53610526,35.08610811,34.47340541,33.67778947,32.57443243,30.95654054,28.7867027,26.25967568,23.56556757,21.02648649,18.88875676,17.29410811,16.15086486,15.32648649,14.80302703,14.45324324,14.23989189,14.12810811,14.08789189,14.10448649,14.18589189,14.34864865,14.64135135,15.05594595,15.577,16.17740541,16.80567568,17.45291892,18.15866667,18.85816216,19.56288889,20.27194595,20.95459459,21.61637838,22.28848649,22.93622222,23.54562162,24.12833333,24.68124324,25.23372973,25.73933333,26.21816667,26.64659459,27.09033333,27.48481081,27.85666667,28.2027027,28.51533333,28.82383784,29.11033333,29.34733333,29.63037838,29.83688889,30.04,30.26724324,30.40677778,30.549,30.71638889,30.8655,30.96116667,31.02233333,31.09872222,31.166,31.14427778,31.10277778,31.026,30.92983333,30.82154286,30.706,30.55933333,30.42133333,30.28434286,30.14333333,29.98571429,29.76166667,29.56057143,29.30411111,29.02933333,28.70337143,28.37566667,28.09462857,27.74228571,27.40702857,27.152,26.90977143,26.78866667,26.6764,26.60348571,26.57433333,26.536,26.53771429,26.546,26.53571429,26.46348571,26.38354286,26.23982857,25.99914286,25.6372,25.10902857,24.36988571,23.29141176,21.88,20.01714286,17.67817143,14.95474286,12.20937143,9.657657143,7.65,6.288171429,5.62925,4.584153846,3.841037037,3.414153846,3.188962963,3.058,2.985111111,2.965555556,2.983333333,3.048769231,3.145555556,3.273333333,3.431076923,3.618923077,3.844814815,4.091846154,4.361846154,4.651555556,4.984307692,5.337307692,5.7,6.066076923,6.444615385,6.834153846,7.207230769,7.590923077,7.988230769,8.39552,8.764,9.14408,9.495,9.860461538,10.216,10.59538462,10.98464,11.35496,11.76892308,12.1456,12.53064,12.9168,13.28432,13.72,14.0724,14.4388,14.81725,15.15256,15.40968,15.64008,15.86666667,16.07088,16.31112,16.464,16.666,16.7932,16.89328,17.02184,17.052,17.14,17.26291667,17.38312,17.395,17.486,17.49736,17.524,17.5405,17.50058333,17.42675,17.31,17.157,16.95633333,16.63516667,16.38347826,16.0265,15.69975,15.41,15.149,14.8235,14.61225,14.416,14.11208696,13.834,13.55713043,13.2733913,13.09478261,12.93886957,12.55269565,12.22434783,11.95634783,11.58678261,11.36572727,11.13391304,10.9553913,10.83327273,10.73669565,10.61408696,10.42052174,9.97426087,9.485454545,9.081909091,8.754,8.426173913,8.133,7.853454545,7.644,7.394727273,7.244181818,7.03,6.851636364,6.677636364,6.368090909,6.184545455,5.887454545,5.636272727,5.464190476,5.248,5.119818182,4.961909091,4.797809524,4.705272727,4.575142857,4.641904762
45.67636842,45.83452632,46.009,46.15284211,46.23968421,46.31626316,46.37989474,46.41763158,46.47710526,46.50968421,46.53352632,46.54668421,46.54942105,46.536,46.53073684,46.51342105,46.47,46.43708108,46.35747368,46.35568421,46.30652632,46.23178947,46.16473684,46.05642105,45.96721053,45.80926316,45.56321053,45.18815789,44.70178947,44.16448649,43.72094737,43.36042105,43.20484211,43.088,42.99484211,42.90068421,42.8087027,42.71989474,42.64621053,42.64167568,42.63236842,42.64427027,42.67757895,42.71654054,42.767,42.83968421,42.88378947,42.91081081,42.94410526,42.9787027,43.00642105,43.018,42.99783784,42.97073684,42.926,42.87510526,42.74956757,42.63884211,42.50848649,42.34147368,42.11416216,41.85351351,41.54757895,41.19491892,40.78357895,40.27448649,39.72663158,39.15778378,38.62162162,38.09621053,37.59686486,37.10778947,36.59605405,35.91513514,35.02357895,33.80772973,32.03091892,29.70205405,27.07881081,24.37351351,21.87783784,19.80345946,18.26183784,17.14021622,16.31410811,15.76794595,15.39010811,15.14010811,14.99772973,14.93291892,14.92432432,14.988,15.13324324,15.40194595,15.78789189,16.26766667,16.82313514,17.40875676,18.01578378,18.68,19.33848649,20.00933333,20.68156757,21.33178378,21.96378378,22.60708108,23.22066667,23.80021622,24.36377778,24.90151351,25.4207027,25.90466667,26.36766667,26.786,27.21433333,27.60881081,27.9795,28.32848649,28.654,28.97745946,29.2825,29.55277778,29.85140541,30.08822222,30.321,30.56691892,30.73038889,30.897,31.09377778,31.25572222,31.3625,31.44322222,31.53211111,31.604,31.58322222,31.529,31.4325,31.30155556,31.15851429,30.99733333,30.829,30.67711111,30.52731429,30.37305556,30.20485714,29.98466667,29.76582857,29.49244444,29.19233333,28.84388571,28.50622222,28.21765714,27.87651429,27.55354286,27.302,27.06325714,26.948,26.84982857,26.80988571,26.80983333,26.81,26.82885714,26.844,26.8588,26.79685714,26.72422857,26.5956,26.37674286,26.0272,25.51,24.77188571,23.692,22.29942857,20.48628571,18.1944,15.59702857,13.03537143,10.65885714,8.806514286,7.540228571,7.0144375,5.941230769,5.157777778,4.688461538,4.408074074,4.254,4.156222222,4.124888889,4.134,4.199692308,4.294444444,4.432666667,4.592,4.793153846,5.020740741,5.262153846,5.529846154,5.822074074,6.143769231,6.477538462,6.828,7.169846154,7.521,7.870769231,8.211692308,8.549846154,8.905230769,9.25848,9.574,9.89936,10.18846154,10.48861538,10.77053846,11.08076923,11.40232,11.68992,12.03892308,12.35248,12.67272,12.99816,13.31496,13.70392,14.0264,14.3616,14.724,15.03888,15.27528,15.50792,15.732,15.95424,16.20664,16.3775,16.59704,16.7348,16.85672,16.98408,17.03933333,17.136,17.28875,17.40608,17.44433333,17.5715,17.58912,17.63575,17.67033333,17.63125,17.5725,17.417,17.252,17.029,16.66816667,16.37834783,15.969,15.60675,15.288,14.983,14.645,14.46375,14.29883333,14.044,13.79130435,13.50765217,13.26304348,13.11643478,12.9293913,12.61852174,12.31904348,12.10913043,11.80286957,11.60918182,11.43713043,11.31226087,11.23890909,11.17504348,11.09669565,10.9406087,10.54834783,10.072,9.689636364,9.326,9.03973913,8.783,8.519545455,8.304,8.014181818,7.885454545,7.689090909,7.535272727,7.399727273,7.093636364,6.903545455,6.569818182,6.381909091,6.194,5.962181818,5.811818182,5.656818182,5.510190476,5.519636364,5.389333333,5.477809524
46.08281955,46.31804511,46.55447368,46.7693609,46.91785714,47.04586466,47.14364662,47.18578947,47.2506391,47.29214286,47.31838346,47.33650376,47.32996241,47.31357143,47.30184211,47.28477444,47.22759398,47.18142857,47.08496241,47.05932331,46.98022556,46.89428571,46.8112782,46.67796992,46.56045113,46.34868421,46.03007519,45.56289474,44.94796992,44.27301158,43.70729323,43.28323308,43.1181203,43.00173745,42.92530075,42.85398496,42.79019305,42.71120301,42.63601504,42.63498069,42.64612782,42.67776062,42.7324812,42.78795367,42.845,42.92233083,42.97827068,43.01548263,43.0487594,43.08127413,43.10804511,43.12204633,43.10444015,43.06887218,43.00571429,42.9268797,42.77088803,42.63360902,42.46625483,42.26458647,41.98598456,41.65868726,41.27691729,40.84436293,40.33345865,39.71455598,39.04977444,38.36150579,37.70061776,37.06030075,36.4476834,35.83721805,35.19795367,34.37127413,33.31011278,31.87988417,29.83486486,27.2276834,24.35779923,21.49664093,18.94409266,16.89714286,15.44629344,14.45208494,13.77247104,13.37,13.12285714,12.9915444,12.94119691,12.95057915,12.99849421,13.09803089,13.27019305,13.56019305,13.95903475,14.45571429,15.02320463,15.62756757,16.25312741,16.93,17.60289575,18.2881746,18.97965251,19.64710425,20.30393822,20.96200772,21.59873016,22.20034749,22.7815873,23.33772201,23.87552124,24.3815873,24.86571429,25.31065637,25.7697619,26.18382239,26.57666667,26.94571429,27.29142857,27.63397683,27.95261905,28.23638889,28.5503861,28.7952381,29.03507937,29.29050193,29.47313492,29.65178571,29.84031746,29.9990873,30.10583333,30.17722222,30.25063492,30.32011905,30.30119048,30.26503968,30.195,30.07753968,29.93469388,29.76285714,29.59738095,29.42333333,29.23661224,29.04924603,28.84877551,28.59404762,28.33412245,28.01944444,27.66246032,27.25534694,26.86587302,26.52718367,26.1322449,25.75228571,25.43428571,25.14893878,24.99714286,24.87755102,24.81938776,24.80321429,24.77428571,24.76918367,24.77547619,24.75861224,24.67281633,24.56955102,24.40481633,24.13444898,23.72228571,23.13130612,22.31742857,21.15067227,19.68142857,17.82306122,15.54767347,13.09510204,10.80334694,8.839061224,7.424163265,6.540040816,5.9096875,5.07967033,4.568888889,4.287637363,4.140793651,4.07,4.028730159,4.030634921,4.046666667,4.102857143,4.174603175,4.274761905,4.388571429,4.530824176,4.694973545,4.876813187,5.069230769,5.286031746,5.531593407,5.789340659,6.063571429,6.335714286,6.61521978,6.906373626,7.182637363,7.461978022,7.765604396,8.068628571,8.348571429,8.642514286,8.910824176,9.173846154,9.426318681,9.687252747,9.957942857,10.19777143,10.4921978,10.76074286,11.04348571,11.33462857,11.60805714,11.96451429,12.26114286,12.56942857,12.90232143,13.18062857,13.39931429,13.62405714,13.83904762,14.04828571,14.29914286,14.48571429,14.71485714,14.87685714,14.98977143,15.10662857,15.13994048,15.22,15.31375,15.41057143,15.4352381,15.51321429,15.52297143,15.54410714,15.56160714,15.51559524,15.45589286,15.33285714,15.18047619,14.97892857,14.68214286,14.42658385,14.05785714,13.73321429,13.41857143,13.12696429,12.8225,12.63678571,12.49232143,12.25149068,12.03590062,11.79347826,11.55385093,11.38701863,11.22993789,10.92391304,10.63869565,10.46695652,10.15850932,10.01350649,9.851925466,9.741987578,9.682337662,9.660621118,9.60242236,9.476149068,9.07447205,8.641298701,8.269285714,7.98,7.726645963,7.512857143,7.274935065,7.11,6.920649351,6.83974026,6.671948052,6.625714286,6.52487013,6.273506494,6.150909091,5.894675325,5.736948052,5.581088435,5.415844156,5.318181818,5.219285714,5.14170068,5.052337662,5.015170068,5.116326531
44.68662281,44.89074561,45.03776316,45.17592105,45.25815789,45.33802632,45.41991228,45.44934211,45.52061404,45.55719298,45.58052632,45.59078947,45.59407895,45.58666667,45.58877193,45.58232456,45.5279386,45.48936937,45.40491228,45.405,45.35596491,45.295,45.23675439,45.11991228,45.04074561,44.89368421,44.65574561,44.29934211,43.81951754,43.27436937,42.80973684,42.43201754,42.29657895,42.18581081,42.09688596,42.03052632,41.96801802,41.89491228,41.82298246,41.83567568,41.84302632,41.85193694,41.88412281,41.91851351,41.9575,42.01232456,42.05649123,42.07738739,42.10614035,42.14391892,42.16701754,42.17396396,42.16297297,42.135,42.08280702,42.02350877,41.89608108,41.79701754,41.67027027,41.50535088,41.27445946,41.00842342,40.70333333,40.36009009,39.9527193,39.44211712,38.89508772,38.31567568,37.77707207,37.23780702,36.72986486,36.23429825,35.72572072,35.04445946,34.16241228,32.95207207,31.17094595,28.80932432,26.0895045,23.23810811,20.58103604,18.36382883,16.73225225,15.56558559,14.73653153,14.20130631,13.8472973,13.62522523,13.51171171,13.46896396,13.47896396,13.55310811,13.71342342,14.00130631,14.41031532,14.93166667,15.52734234,16.16400901,16.82337838,17.54111111,18.24972973,18.9762963,19.70342342,20.40945946,21.09981982,21.80342342,22.47777778,23.11653153,23.73333333,24.3186036,24.89738739,25.43175926,25.94152778,26.39945946,26.87055556,27.2913964,27.68819444,28.05743243,28.40055556,28.73184685,29.03402778,29.29009259,29.58581081,29.81185185,30.03481481,30.27833333,30.42300926,30.575,30.75666667,30.90837963,31.01736111,31.08537037,31.16407407,31.23347222,31.20981481,31.16444444,31.09,30.98921296,30.86904762,30.74296296,30.58972222,30.43685185,30.27995238,30.12180556,29.93928571,29.70055556,29.47761905,29.19981481,28.89759259,28.53871429,28.18282407,27.87171429,27.49657143,27.142,26.8675,26.61280952,26.47444444,26.33885714,26.26061905,26.22819444,26.18333333,26.17738095,26.18361111,26.17552381,26.09647619,26.0047619,25.85509524,25.59719048,25.20966667,24.64742857,23.86380952,22.71941176,21.25738095,19.33214286,16.93938095,14.21433333,11.51219048,9.052571429,7.183857143,5.956714286,5.30140625,4.302692308,3.646790123,3.273653846,3.07537037,2.975,2.911111111,2.899259259,2.921111111,2.978076923,3.050740741,3.158888889,3.284615385,3.44724359,3.632530864,3.84474359,4.076538462,4.327901235,4.622371795,4.929230769,5.265833333,5.595192308,5.938397436,6.291923077,6.63525641,6.993846154,7.3675,7.7424,8.106666667,8.4726,8.814423077,9.160641026,9.503910256,9.877051282,10.25253333,10.60286667,11.00384615,11.38573333,11.7634,12.14533333,12.51373333,12.9524,13.312,13.68066667,14.06770833,14.40406667,14.6604,14.90486667,15.145,15.36053333,15.60866667,15.78,15.98926667,16.13233333,16.24893333,16.3704,16.41152778,16.49166667,16.62451389,16.73193333,16.75944444,16.8575,16.86713333,16.89666667,16.91840278,16.85972222,16.798125,16.67208333,16.5425,16.32597222,16.02513889,15.75536232,15.39708333,15.07958333,14.79083333,14.51166667,14.19625,13.98458333,13.80819444,13.48471014,13.21326087,12.93898551,12.66804348,12.5007971,12.2826087,11.94623188,11.60108696,11.32565217,10.96586957,10.73575758,10.53478261,10.35478261,10.23636364,10.17376812,10.07963768,9.895289855,9.461014493,8.966515152,8.533030303,8.215,7.902246377,7.628333333,7.377272727,7.163333333,6.933939394,6.794090909,6.607878788,6.478787879,6.316893939,6.08469697,5.886060606,5.596818182,5.353181818,5.14952381,4.971212121,4.888636364,4.761893939,4.62547619,4.492121212,4.412301587,4.459444444
40.69381579,40.89328947,41.16197368,41.38651316,41.55592105,41.71157895,41.82453947,41.88006579,41.96098684,42.02934211,42.08269737,42.11888158,42.14796053,42.15375,42.16361842,42.17276316,42.12835526,42.10898649,42.03960526,42.04276316,41.97276316,41.89578947,41.84013158,41.72565789,41.62690789,41.4475,41.16131579,40.72453947,40.15414474,39.52425676,39.02144737,38.63407895,38.48236842,38.36608108,38.29065789,38.22763158,38.16959459,38.11657895,38.05210526,38.0852027,38.10914474,38.14804054,38.20960526,38.25905405,38.31625,38.40552632,38.45552632,38.49594595,38.55032895,38.60189189,38.64184211,38.66513514,38.66182432,38.65157895,38.61144737,38.54901316,38.41175676,38.29184211,38.14263514,37.95513158,37.68831081,37.39256757,37.0275,36.61533784,36.12960526,35.54128378,34.91703947,34.25331081,33.63635135,33.03184211,32.45378378,31.88447368,31.30581081,30.54817568,29.54697368,28.17222973,26.2,23.68972973,20.92216216,18.18222973,15.75182432,13.81885135,12.4597973,11.51722973,10.85324324,10.43391892,10.16114865,9.993918919,9.907702703,9.875202703,9.887567568,9.951621622,10.08972973,10.33445946,10.67905405,11.11708333,11.62175676,12.16486486,12.72864865,13.35416667,13.98925676,14.63916667,15.30006757,15.94675676,16.59567568,17.25256757,17.89555556,18.51452703,19.11638889,19.69858108,20.26905405,20.80583333,21.32854167,21.79412162,22.27666667,22.71648649,23.12958333,23.52209459,23.87416667,24.22695946,24.55208333,24.82972222,25.13527027,25.37583333,25.60777778,25.85486486,26.03145833,26.1975,26.37986111,26.53895833,26.646875,26.70909722,26.78201389,26.858125,26.83902778,26.79708333,26.734375,26.63368056,26.52742857,26.40666667,26.26708333,26.11555556,25.93885714,25.76638889,25.56714286,25.31375,25.07928571,24.80201389,24.48888889,24.13635714,23.76430556,23.438,23.062,22.698,22.39875,22.12464286,21.97833333,21.85914286,21.79314286,21.764375,21.7425,21.74821429,21.75541667,21.74535714,21.67292857,21.58471429,21.42357143,21.16314286,20.772,20.20507143,19.422,18.30264706,16.88428571,15.08928571,12.95407143,10.67021429,8.530428571,6.731,5.454642857,4.6855,4.07234375,3.334615385,2.908703704,2.662788462,2.533333333,2.4625,2.416944444,2.420277778,2.425833333,2.455961538,2.501944444,2.571666667,2.648846154,2.749423077,2.870185185,3.004615385,3.150192308,3.309166667,3.492884615,3.696346154,3.9125,4.123653846,4.345769231,4.578076923,4.809615385,5.051153846,5.310576923,5.5753,5.835,6.107,6.354711538,6.609230769,6.859615385,7.135,7.4234,7.6972,8.012115385,8.3072,8.6168,8.9205,9.2249,9.579,9.88,10.1955,10.5146875,10.7915,10.9864,11.1887,11.38583333,11.5686,11.7843,11.948125,12.1211,12.2485,12.3415,12.4339,12.47239583,12.54,12.6246875,12.7121,12.73166667,12.790625,12.7846,12.7984375,12.78583333,12.72166667,12.633125,12.4875,12.34416667,12.19083333,11.96427083,11.79184783,11.523125,11.2796875,11.03875,10.815625,10.584375,10.408125,10.24739583,9.989130435,9.777608696,9.551630435,9.337282609,9.18326087,9.014673913,8.742717391,8.437608696,8.241847826,7.93076087,7.745795455,7.583152174,7.485,7.453636364,7.477282609,7.419891304,7.258695652,6.902282609,6.476363636,6.156704545,5.865,5.66076087,5.4325,5.294431818,5.15,4.992045455,4.902727273,4.819772727,4.751136364,4.620454545,4.470681818,4.340113636,4.111818182,3.963181818,3.803690476,3.688863636,3.623636364,3.475568182,3.470595238,3.397727273,3.355714286,3.402261905
44.82365132,45.085,45.36674342,45.63414474,45.83315789,46.01003289,46.13651316,46.200625,46.27677632,46.32055921,46.35286184,46.381875,46.40338816,46.395625,46.38990132,46.36657895,46.32917763,46.28422297,46.18453947,46.14578947,46.06368421,45.97513158,45.87868421,45.73690789,45.62230263,45.39842105,45.06289474,44.56703947,43.92289474,43.21108108,42.60552632,42.14921053,41.93427632,41.78415541,41.69815789,41.61993421,41.54179054,41.45315789,41.37256579,41.38108108,41.40845395,41.44429054,41.50480263,41.55611486,41.6125,41.69371711,41.74177632,41.7864527,41.83309211,41.87871622,41.91315789,41.93209459,41.92614865,41.90565789,41.85302632,41.77963816,41.61543919,41.46934211,41.29368243,41.08414474,40.78875,40.43959459,40.03032895,39.56260135,39.01605263,38.36263514,37.66796053,36.94108108,36.24432432,35.57605263,34.94280405,34.32822368,33.67949324,32.8389527,31.756875,30.2889527,28.17567568,25.46554054,22.50472973,19.58945946,17.01540541,14.97952703,13.55347973,12.56277027,11.87162162,11.43513514,11.14976351,10.97060811,10.87466216,10.83851351,10.84706081,10.90847973,11.04094595,11.28320946,11.63118243,12.0778125,12.59060811,13.14358108,13.72574324,14.36625,15.01341216,15.67895833,16.36297297,17.0314527,17.69327703,18.38033784,19.04527778,19.68564189,20.31333333,20.91814189,21.5127027,22.07618056,22.61489583,23.10570946,23.6025,24.06472973,24.50197917,24.90925676,25.28541667,25.64422297,25.979375,26.27673611,26.59361486,26.84777778,27.09340278,27.34608108,27.52055556,27.6953125,27.87378472,28.03461806,28.143125,28.21670139,28.28701389,28.34364583,28.32184028,28.2696875,28.1828125,28.06840278,27.94085714,27.8075,27.65645833,27.48138889,27.27675,27.06611111,26.85339286,26.595,26.33903571,26.03868056,25.70902778,25.33303571,24.95447917,24.61442857,24.21078571,23.82546429,23.505625,23.22235714,23.075,22.96535714,22.91317857,22.89572917,22.87875,22.88482143,22.89833333,22.89846429,22.82332143,22.72496429,22.552,22.276,21.85975,21.26246429,20.43764286,19.26117647,17.79303571,15.95196429,13.72242857,11.377,9.243714286,7.470714286,6.225571429,5.493035714,4.888515625,4.167403846,3.738009259,3.490769231,3.360138889,3.29375,3.237083333,3.224305556,3.223333333,3.259038462,3.303333333,3.374166667,3.4475,3.544711538,3.667453704,3.793557692,3.933076923,4.092638889,4.274951923,4.474855769,4.679375,4.884903846,5.099375,5.324519231,5.54875,5.781153846,6.035865385,6.3002,6.55125,6.8171,7.060432692,7.316057692,7.555817308,7.822403846,8.10125,8.3704,8.67625,8.97225,9.27315,9.5805,9.8775,10.2398,10.54575,10.855,11.18015625,11.45345,11.66375,11.8614,12.06125,12.24645,12.45925,12.6184375,12.8096,12.939,13.0271,13.1242,13.15963542,13.21,13.30223958,13.39645,13.40520833,13.4675,13.4647,13.47671875,13.4825,13.42447917,13.33859375,13.19375,13.06333333,12.89708333,12.66989583,12.4701087,12.1821875,11.9246875,11.685,11.46609375,11.2028125,11.03625,10.86020833,10.61076087,10.39157609,10.18907609,9.978315217,9.822826087,9.644402174,9.358586957,9.090434783,8.855923913,8.570543478,8.397954545,8.220923913,8.138641304,8.106363636,8.108967391,8.069347826,7.946521739,7.572391304,7.154886364,6.800227273,6.5475,6.293695652,6.12375,5.954829545,5.8075,5.677613636,5.605340909,5.476818182,5.412613636,5.343295455,5.134829545,5.029715909,4.804431818,4.679431818,4.511547619,4.422443182,4.308977273,4.256704545,4.170297619,4.103863636,4.034940476,4.126904762
44.9972807,45.19605263,45.47087719,45.67,45.79171053,45.91065789,46.02311404,46.09083333,46.19697368,46.25907895,46.30307018,46.33381579,46.35618421,46.34833333,46.34864035,46.32578947,46.25828947,46.22518018,46.13368421,46.11561404,46.03754386,45.94175439,45.84833333,45.69482456,45.56416667,45.32960526,44.95899123,44.39552632,43.66688596,42.87765766,42.23122807,41.72912281,41.52122807,41.35864865,41.23675439,41.13635965,41.04333333,40.9595614,40.88631579,40.88891892,40.89333333,40.91387387,40.97824561,41.0268018,41.09083333,41.18679825,41.25078947,41.2913964,41.34245614,41.40671171,41.44570175,41.47445946,41.46441441,41.43815789,41.38684211,41.31732456,41.1527027,41.0004386,40.80972973,40.56710526,40.24166667,39.86846847,39.43096491,38.93103604,38.3422807,37.63918919,36.88833333,36.11545045,35.39954955,34.7054386,34.04968468,33.41324561,32.76202703,31.90545045,30.78447368,29.27135135,27.12743243,24.43076577,21.5159009,18.68725225,16.2172973,14.26828829,12.90454955,11.95184685,11.27198198,10.83,10.53436937,10.34369369,10.22954955,10.17351351,10.16247748,10.20184685,10.30765766,10.51941441,10.82527027,11.21666667,11.67396396,12.16873874,12.6927027,13.27888889,13.86882883,14.48722222,15.11842342,15.73851351,16.34972973,16.99788288,17.62018519,18.225,18.81546296,19.38711712,19.9522973,20.48944444,21.0075,21.48148649,21.96861111,22.41927928,22.83819444,23.23626126,23.60777778,23.97207207,24.30972222,24.60356481,24.91806306,25.18,25.42796296,25.68801802,25.87296296,26.05916667,26.25689815,26.41796296,26.54013889,26.6187037,26.69972222,26.77291667,26.76541667,26.72731481,26.65833333,26.54689815,26.41885714,26.28851852,26.145,25.97425926,25.77671429,25.57296296,25.36690476,25.10944444,24.85995238,24.56782407,24.24925926,23.88504762,23.51708333,23.18961905,22.81209524,22.46214286,22.1875,21.92047619,21.77444444,21.66161905,21.61071429,21.60069444,21.59166667,21.60928571,21.62805556,21.62642857,21.56509524,21.48880952,21.33538095,21.0837619,20.69466667,20.12414286,19.34304762,18.23078431,16.83761905,15.10904762,13.05261905,10.87690476,8.892190476,7.242619048,6.082190476,5.39547619,4.808385417,4.083974359,3.687469136,3.447307692,3.317160494,3.25,3.205,3.19462963,3.196111111,3.223974359,3.267592593,3.322222222,3.387820513,3.482628205,3.582222222,3.695384615,3.817820513,3.953024691,4.114871795,4.29,4.471666667,4.648269231,4.834102564,5.030512821,5.225128205,5.427564103,5.652371795,5.894466667,6.108333333,6.345066667,6.560641026,6.782051282,6.994679487,7.226666667,7.468466667,7.703,7.976794872,8.242133333,8.509666667,8.788333333,9.061133333,9.395866667,9.687666667,9.987,10.299375,10.55373333,10.75486667,10.9548,11.14555556,11.33573333,11.55893333,11.72833333,11.92686667,12.072,12.17333333,12.26646667,12.29979167,12.36666667,12.45194444,12.53466667,12.56805556,12.63791667,12.63653333,12.65333333,12.6575,12.60868056,12.52979167,12.42125,12.28833333,12.13472222,11.895,11.72181159,11.43583333,11.176875,10.9325,10.71541667,10.47,10.31,10.16354167,9.922318841,9.736376812,9.550289855,9.348913043,9.192028986,9.011956522,8.752246377,8.486594203,8.28384058,8.013478261,7.87780303,7.734855072,7.663333333,7.643939394,7.665289855,7.664202899,7.54115942,7.154782609,6.759242424,6.419166667,6.185,5.959782609,5.775,5.591666667,5.501666667,5.34030303,5.291515152,5.228484848,5.178939394,5.060454545,4.939090909,4.788560606,4.58030303,4.41719697,4.311190476,4.209318182,4.112727273,4.049772727,3.973571429,3.901212121,3.912857143,3.976984127
43.32457895,43.49846154,43.72421053,43.918,44.008,44.10078947,44.16138462,44.18136842,44.24178947,44.27492308,44.30068421,44.31310526,44.32521053,44.31430769,44.302,44.26747368,44.23094737,44.21284211,44.16936842,44.13266667,44.05789474,43.97389474,43.905,43.78715789,43.68221053,43.49836842,43.21073684,42.78778947,42.22568421,41.66005263,41.20868421,40.90447368,40.79131579,40.74068421,40.71021053,40.67168421,40.63315789,40.60778947,40.57978947,40.59556757,40.60368421,40.63968421,40.68254054,40.72431579,40.768,40.82578378,40.86442105,40.89016216,40.91789474,40.93924324,40.956,40.95273684,40.93084211,40.9032973,40.85610526,40.78768421,40.64073684,40.51464865,40.35351351,40.16368421,39.91594595,39.63136842,39.28421622,38.88742105,38.42515789,37.87497297,37.28102703,36.68389189,36.10913514,35.54094737,34.9932973,34.44968421,33.87135135,33.10610811,32.07815789,30.65789189,28.66043243,26.136,23.39731579,20.59854054,18.17032432,16.25,14.91762162,14.02708108,13.44073684,13.1135,12.93042105,12.85566667,12.86178947,12.91066667,13.00589189,13.14621622,13.37654054,13.73805405,14.21264865,14.78064865,15.4165,16.09108108,16.77616216,17.50266667,18.22702703,18.95097297,19.6755,20.39540541,21.07308108,21.774,22.43859459,23.08697297,23.69237838,24.28427778,24.842,25.37,25.87908108,26.32911111,26.78205405,27.19783784,27.57666667,27.93172973,28.26378378,28.56933333,28.85372973,29.1015,29.37755556,29.576,29.776,29.98355556,30.13927778,30.28233333,30.43933333,30.58335135,30.66366667,30.71977778,30.78633333,30.854,30.80955556,30.776,30.70533333,30.61311111,30.52533333,30.41866667,30.27222222,30.10311111,29.967,29.78111111,29.55566667,29.30931429,29.07283333,28.75716667,28.42388571,28.04511111,27.68333333,27.30616667,26.91555556,26.55588571,26.249,25.97297143,25.76388571,25.613,25.506,25.43571429,25.39022222,25.35783333,25.32005714,25.26088889,25.1588,25.04222222,24.8372,24.52233333,24.10485714,23.48554286,22.64888889,21.48628571,19.972,18.12948571,15.80142857,13.24965714,10.7364,8.528285714,6.845028571,5.748228571,5.124967742,4.227703704,3.589407407,3.217851852,3.032,2.931538462,2.89162963,2.909037037,2.955333333,3.030222222,3.130222222,3.258296296,3.411,3.6,3.811230769,4.033333333,4.283230769,4.564,4.868384615,5.187307692,5.525923077,5.876923077,6.221923077,6.571,6.921846154,7.276076923,7.655692308,8.031846154,8.410307692,8.77384,9.123692308,9.486,9.816769231,10.1884,10.55152,10.92224,11.32032,11.677,12.052,12.41776,12.77664,13.19312,13.55146154,13.89496,14.28448,14.5788,14.82448,15.07144,15.27856,15.45925,15.6776,15.83464,16.02536,16.15312,16.22344,16.35544,16.334,16.38275,16.46784,16.528,16.53,16.59566667,16.57575,16.58856,16.589,16.5385,16.46866667,16.373,16.25425,16.08533333,15.81843478,15.61666667,15.31686957,15.03582609,14.801,14.566,14.272,14.08486957,13.86541667,13.56147826,13.30782609,13.05973913,12.79095652,12.61765217,12.39243478,12.038,11.70252174,11.4393913,11.04843478,10.79965217,10.59034783,10.41730435,10.28652174,10.18254545,10.07945455,10.01081818,9.579818182,9.090434783,8.687304348,8.332,8.024727273,7.74973913,7.470363636,7.294,7.040181818,6.909,6.721714286,6.614727273,6.445636364,6.173272727,6.040545455,5.757047619,5.507818182,5.343181818,5.131272727,4.987,4.837714286,4.718363636,4.60152381,4.463181818,4.554
48.51884211,48.72821053,48.95973684,49.14315789,49.28263158,49.39373684,49.48473684,49.52084211,49.58294737,49.60768421,49.63594737,49.65442105,49.65831579,49.641,49.63836842,49.61305263,49.55668421,49.52864865,49.44494737,49.41326316,49.33189474,49.24947368,49.17231579,49.04273684,48.94247368,48.74494737,48.45284211,48.02331579,47.45236842,46.82145946,46.31315789,45.91505263,45.76684211,45.65551351,45.57157895,45.49821053,45.42318919,45.356,45.28915789,45.29232432,45.28547368,45.30740541,45.35231579,45.38956757,45.433,45.49715789,45.55042105,45.57886486,45.61010526,45.64151351,45.67157895,45.68162162,45.66437838,45.63978947,45.59242105,45.52968421,45.37237838,45.24452632,45.08778378,44.89305263,44.63308108,44.33437838,43.97473684,43.56486486,43.08705263,42.50913514,41.88931579,41.24535135,40.64508108,40.06484211,39.50616216,38.95873684,38.38827027,37.6307027,36.62763158,35.26627027,33.29005405,30.73535135,27.88589189,24.9772973,22.32291892,20.14918919,18.556,17.42762162,16.61875676,16.1072973,15.77,15.57021622,15.4647027,15.43102703,15.45702703,15.54967568,15.72902703,16.04151351,16.48475676,17.0315,17.65081081,18.31232432,18.99232432,19.72533333,20.45643243,21.19388889,21.93118919,22.64583784,23.35427027,24.05367568,24.73311111,25.37394595,25.99222222,26.58054054,27.15464865,27.68666667,28.204,28.66454054,29.13733333,29.572,29.972,30.33605405,30.688,31.03610811,31.35283333,31.62583333,31.92843243,32.16022222,32.393,32.64281081,32.81327778,32.9835,33.17777778,33.33655556,33.4405,33.51861111,33.61027778,33.69516667,33.691,33.65994444,33.589,33.49927778,33.3932,33.26866667,33.12533333,32.97222222,32.81428571,32.63655556,32.44057143,32.17833333,31.9308,31.62511111,31.28055556,30.88634286,30.49922222,30.16885714,29.7732,29.39628571,29.09,28.80017143,28.64666667,28.51942857,28.4508,28.43,28.412,28.41542857,28.41766667,28.41262857,28.32737143,28.23057143,28.06057143,27.79382857,27.38,26.77,25.92474286,24.70882353,23.16885714,21.182,18.64937143,15.81885714,13.10188571,10.60154286,8.6752,7.393428571,6.7505,5.672769231,4.852444444,4.377461538,4.137259259,3.998,3.937555556,3.944888889,3.980666667,4.068153846,4.184,4.340666667,4.515846154,4.737230769,4.989259259,5.260769231,5.568461538,5.884444444,6.241461538,6.615923077,6.995,7.373153846,7.761307692,8.158153846,8.542615385,8.935230769,9.342230769,9.75192,10.138,10.53392,10.89407692,11.25846154,11.60438462,11.96569231,12.32848,12.66864,13.05738462,13.43032,13.79736,14.18024,14.5456,14.98944,15.3476,15.7272,16.14075,16.4948,16.76736,17.03672,17.29666667,17.54848,17.8384,18.0435,18.2876,18.4512,18.5704,18.70584,18.73808333,18.82,18.93475,19.0404,19.062,19.1495,19.1612,19.18175,19.181,19.13216667,19.071,18.94,18.77466667,18.55966667,18.25341667,18.0033913,17.627,17.2925,16.999,16.673,16.3365,16.13975,15.95575,15.648,15.35921739,15.0626087,14.75895652,14.57678261,14.36130435,13.98313043,13.62313043,13.34252174,12.97347826,12.76227273,12.52678261,12.36434783,12.24436364,12.13686957,12.00478261,11.80956522,11.32521739,10.81890909,10.37136364,10.012,9.694695652,9.396,9.079636364,8.858,8.596909091,8.481636364,8.269090909,8.049454545,7.873454545,7.585818182,7.376454545,7.062,6.801909091,6.569142857,6.317090909,6.177090909,6.007181818,5.827619048,5.741454545,5.643047619,5.663809524
44.20436842,44.39805263,44.63205263,44.82715789,44.96136842,45.07168421,45.18163158,45.23089474,45.29510526,45.32968421,45.35463158,45.37215789,45.37831579,45.356,45.33368421,45.30636842,45.24615789,45.19167568,45.09821053,45.04326316,44.96336842,44.86431579,44.76336842,44.61915789,44.48794737,44.26068421,43.912,43.39710526,42.74389474,42.0327027,41.43652632,41.00673684,40.80589474,40.67481081,40.58426316,40.50463158,40.42605405,40.34547368,40.28284211,40.28448649,40.29657895,40.33059459,40.38568421,40.42821622,40.477,40.54805263,40.60242105,40.63767568,40.67936842,40.71643243,40.74431579,40.75962162,40.7452973,40.71473684,40.66052632,40.58273684,40.4287027,40.28547368,40.10481081,39.88536842,39.58989189,39.25297297,38.84547368,38.38032432,37.84284211,37.19097297,36.50178947,35.79259459,35.1172973,34.46505263,33.85286486,33.25536842,32.6152973,31.78772973,30.70557895,29.25405405,27.15864865,24.50286486,21.62232432,18.81427027,16.34962162,14.41037838,13.05318919,12.1167027,11.46908108,11.06097297,10.79394595,10.63416216,10.55156757,10.5252973,10.53913514,10.60508108,10.74054054,10.98102703,11.32859459,11.768,12.26594595,12.80562162,13.37059459,13.99133333,14.62145946,15.26077778,15.9252973,16.57308108,17.23016216,17.87432432,18.50911111,19.12151351,19.72733333,20.30475676,20.87064865,21.40844444,21.92116667,22.39913514,22.87233333,23.3132973,23.72616667,24.11118919,24.468,24.80767568,25.1275,25.41633333,25.71837838,25.95533333,26.18622222,26.42318919,26.58911111,26.7495,26.92666667,27.08066667,27.1755,27.24372222,27.31038889,27.364,27.34605556,27.3105,27.237,27.12977778,27.00742857,26.888,26.74966667,26.57688889,26.38645714,26.18622222,25.97514286,25.71833333,25.47245714,25.18805556,24.87588889,24.51531429,24.15327778,23.81897143,23.43931429,23.08714286,22.791,22.52045714,22.36933333,22.2544,22.18582857,22.16066667,22.146,22.15342857,22.162,22.15371429,22.07874286,21.98725714,21.82148571,21.55188571,21.1508,20.56954286,19.76205714,18.62964706,17.21057143,15.44428571,13.28994286,11.02091429,8.967257143,7.255314286,6.0592,5.356,4.8280625,4.066769231,3.63437037,3.382153846,3.234592593,3.156,3.098444444,3.063777778,3.058,3.084615385,3.127111111,3.194,3.270923077,3.375153846,3.492592593,3.620923077,3.761230769,3.920222222,4.101461538,4.299153846,4.512,4.710230769,4.924153846,5.145538462,5.364769231,5.590615385,5.843,6.10312,6.346,6.61256,6.849230769,7.091230769,7.326692308,7.580769231,7.83896,8.10816,8.396923077,8.68088,8.97736,9.2692,9.5576,9.90896,10.208,10.5204,10.834,11.10128,11.29176,11.48352,11.67733333,11.85448,12.07232,12.2415,12.43064,12.5708,12.65456,12.74088,12.76008333,12.808,12.89383333,12.97112,12.99266667,13.0615,13.07448,13.082,13.08741667,13.03675,12.96475,12.85,12.72533333,12.573,12.33841667,12.14573913,11.848,11.59675,11.369,11.154,10.8995,10.735,10.57541667,10.32695652,10.13008696,9.913826087,9.721478261,9.583826087,9.398086957,9.119565217,8.842173913,8.617391304,8.325652174,8.149181818,8.036173913,7.946434783,7.943090909,7.974347826,7.945130435,7.827652174,7.418086957,6.977454545,6.632272727,6.364,6.133913043,5.939,5.757545455,5.626,5.506727273,5.465454545,5.344181818,5.292363636,5.203727273,5.039727273,4.927,4.680181818,4.528636364,4.385333333,4.238181818,4.178545455,4.104181818,4.015238095,3.955818182,3.931619048,4.000666667
42.09068421,42.22389474,42.39215789,42.50005263,42.57373684,42.63463158,42.68805263,42.70042105,42.74436842,42.75673684,42.77421053,42.78468421,42.78357895,42.758,42.74057895,42.72984211,42.67331579,42.64335135,42.57536842,42.55821053,42.50368421,42.43778947,42.37221053,42.27052632,42.19936842,42.05068421,41.82568421,41.49515789,41.07747368,40.62827027,40.27147368,39.97947368,39.87336842,39.79389189,39.72652632,39.66173684,39.59475676,39.52610526,39.47663158,39.48486486,39.48015789,39.48021622,39.50652632,39.5172973,39.54,39.58536842,39.60326316,39.60708108,39.62357895,39.64162162,39.65578947,39.65351351,39.62848649,39.59557895,39.55557895,39.50510526,39.37772973,39.26957895,39.15010811,39.00294737,38.804,38.58048649,38.31157895,38.00162162,37.64442105,37.2107027,36.74647368,36.25881081,35.81248649,35.37210526,34.94594595,34.52631579,34.09048649,33.49497297,32.70331579,31.60443243,29.98151351,27.84205405,25.40935135,22.88464865,20.5547027,18.62854054,17.20648649,16.18756757,15.44783784,14.97983784,14.6572973,14.46437838,14.35724324,14.32059459,14.33594595,14.41389189,14.58167568,14.87972973,15.29054054,15.8015,16.372,16.97572973,17.59356757,18.25933333,18.9247027,19.599,20.2647027,20.91064865,21.55859459,22.17816216,22.79288889,23.36875676,23.92655556,24.45767568,24.97659459,25.45522222,25.90883333,26.31340541,26.728,27.10178378,27.451,27.77356757,28.062,28.34578378,28.60933333,28.82683333,29.07356757,29.25866667,29.44788889,29.64594595,29.77227778,29.9015,30.04788889,30.17622222,30.26533333,30.3205,30.38577778,30.44183333,30.41827778,30.37333333,30.3025,30.21983333,30.13771429,30.03777778,29.92166667,29.79622222,29.66234286,29.51738889,29.36171429,29.151,28.95348571,28.7065,28.44955556,28.13468571,27.82255556,27.5592,27.23074286,26.92388571,26.679,26.44508571,26.32066667,26.20394286,26.13342857,26.09783333,26.064,26.05857143,26.05966667,26.05017143,25.97211429,25.8824,25.72874286,25.48714286,25.1308,24.60834286,23.8824,22.82094118,21.45228571,19.65571429,17.37805714,14.75714286,12.13708571,9.693028571,7.7772,6.474857143,5.9473125,4.941538462,4.172592593,3.725307692,3.473555556,3.33,3.243333333,3.213777778,3.228,3.296923077,3.396444444,3.534,3.696461538,3.901153846,4.132962963,4.382,4.660615385,4.962518519,5.297615385,5.649,6.019,6.377769231,6.750538462,7.134923077,7.503230769,7.883230769,8.283538462,8.67584,9.05,9.43592,9.785,10.13769231,10.50046154,10.88384615,11.27672,11.64872,12.06507692,12.45696,12.8412,13.22624,13.58304,14.01488,14.3676,14.7164,15.08275,15.39944,15.638,15.8628,16.062,16.24064,16.45536,16.596,16.76888,16.874,16.9472,17.05808,17.09025,17.16,17.26216667,17.36112,17.382,17.467,17.47736,17.488,17.50083333,17.44383333,17.371,17.234,17.10633333,16.92233333,16.632,16.42382609,16.1,15.833,15.588,15.3495,15.086,14.9125,14.70375,14.3966087,14.15121739,13.88573913,13.61286957,13.4426087,13.23208696,12.86391304,12.5193913,12.24991304,11.88669565,11.66118182,11.44,11.24956522,11.13636364,11.03408696,10.89113043,10.71330435,10.25730435,9.799272727,9.401181818,9.086,8.770695652,8.496,8.203909091,7.998,7.741454545,7.565636364,7.333636364,7.217636364,7.034909091,6.713545455,6.508545455,6.179454545,5.974636364,5.68847619,5.510636364,5.354909091,5.195909091,5.096857143,4.930909091,4.834380952,4.837428571
44.38878947,44.46247368,44.64694737,44.79226316,44.88436842,44.97194737,45.04642105,45.07563158,45.13326316,45.15615789,45.18263158,45.19842105,45.19868421,45.178,45.16547368,45.16,45.09042105,45.04681081,44.95810526,44.96168421,44.89926316,44.82189474,44.75526316,44.62526316,44.53678947,44.35642105,44.07615789,43.66289474,43.15921053,42.63664865,42.23136842,41.90242105,41.78410526,41.67583784,41.58789474,41.49621053,41.40335135,41.31789474,41.24105263,41.25616216,41.26089474,41.26627027,41.29452632,41.31297297,41.341,41.39989474,41.42715789,41.44691892,41.46794737,41.49124324,41.51768421,41.52562162,41.50421622,41.46484211,41.40852632,41.34631579,41.21097297,41.09168421,40.95475676,40.78189474,40.53318919,40.26643243,39.94505263,39.58616216,39.16294737,38.65340541,38.11026316,37.54540541,37.02891892,36.526,36.04762162,35.56705263,35.06178378,34.37097297,33.46494737,32.19735135,30.37545946,28.05751351,25.48264865,22.89648649,20.57437838,18.68378378,17.29567568,16.29027027,15.54713514,15.05005405,14.70378378,14.47643243,14.33859459,14.27805405,14.26751351,14.32502703,14.47762162,14.74918919,15.12648649,15.59433333,16.12843243,16.69805405,17.28421622,17.92533333,18.55362162,19.20877778,19.86464865,20.50108108,21.11048649,21.74605405,22.35688889,22.93324324,23.48522222,24.00972973,24.53740541,25.02122222,25.48283333,25.89016216,26.32133333,26.71794595,27.082,27.41902703,27.72933333,28.04064865,28.3265,28.56344444,28.8427027,29.05911111,29.27366667,29.50324324,29.65133333,29.8015,29.97183333,30.12277778,30.22866667,30.30338889,30.37977778,30.451,30.43555556,30.3905,30.323,30.22688889,30.12542857,30.00955556,29.87733333,29.734,29.58857143,29.44094444,29.26714286,29.03966667,28.81611429,28.553,28.253,27.91771429,27.57361111,27.2896,26.93291429,26.59337143,26.346,26.11691429,26.01933333,25.9268,25.87382857,25.85333333,25.834,25.84285714,25.84666667,25.8452,25.77285714,25.68594286,25.52982857,25.29108571,24.934,24.39874286,23.65588571,22.57882353,21.19771429,19.388,17.17657143,14.69051429,12.246,10.01588571,8.311657143,7.176514286,6.64775,5.707846154,5.010740741,4.580230769,4.333555556,4.196,4.104444444,4.079333333,4.076666667,4.136461538,4.22,4.335333333,4.467846154,4.637538462,4.838074074,5.047384615,5.286307692,5.539703704,5.829923077,6.135461538,6.445,6.758230769,7.075538462,7.407076923,7.721230769,8.05,8.384769231,8.7288,9.056,9.3756,9.683307692,10.00138462,10.29053846,10.61538462,10.94184,11.24856,11.59830769,11.93256,12.26728,12.608,12.93024,13.32776,13.6552,13.994,14.355,14.65888,14.9084,15.13608,15.35666667,15.5708,15.80456,15.976,16.184,16.3284,16.42296,16.5388,16.57175,16.652,16.7605,16.87408,16.89433333,17.0125,17.01528,17.0315,17.04975,17.008,16.95575,16.8275,16.68566667,16.48766667,16.18166667,15.95773913,15.6115,15.3025,15.033,14.76575,14.47,14.298,14.142,13.85617391,13.61747826,13.35086957,13.09147826,12.94347826,12.75356522,12.43295652,12.114,11.88617391,11.54408696,11.33672727,11.19069565,11.04286957,10.966,10.89026087,10.80217391,10.61704348,10.19791304,9.758181818,9.371454545,9.074,8.807913043,8.519,8.256,8.086,7.898727273,7.707454545,7.505454545,7.405454545,7.246181818,6.921181818,6.793181818,6.485454545,6.262181818,6.093714286,5.920545455,5.808363636,5.682818182,5.524666667,5.418727273,5.300666667,5.387809524
45.71426316,45.86268421,46.03626316,46.14942105,46.21257895,46.27442105,46.34378947,46.35557895,46.42031579,46.46147368,46.49310526,46.49573684,46.50594737,46.49,46.50178947,46.49063158,46.44736842,46.42578378,46.35694737,46.36936842,46.32989474,46.27610526,46.21842105,46.11094737,46.05152632,45.91552632,45.705,45.37710526,44.94305263,44.44713514,44.02821053,43.67642105,43.55810526,43.46086486,43.38015789,43.31215789,43.24340541,43.17431579,43.10115789,43.11816216,43.118,43.12518919,43.16063158,43.20156757,43.244,43.30878947,43.35273684,43.37994595,43.41136842,43.45016216,43.46968421,43.47762162,43.46410811,43.43873684,43.39557895,43.34710526,43.22156757,43.13294737,43.01437838,42.86326316,42.65475676,42.42102703,42.14515789,41.82037838,41.44631579,40.97318919,40.45131579,39.90567568,39.39578378,38.87621053,38.38935135,37.90221053,37.40843243,36.74178378,35.90036842,34.72113514,32.99859459,30.70724324,28.03183784,25.18475676,22.49286486,20.21351351,18.51335135,17.29037838,16.40772973,15.8487027,15.47794595,15.25756757,15.14383784,15.1152973,15.14156757,15.23572973,15.41637838,15.72475676,16.16475676,16.71883333,17.34735135,18.0152973,18.70416216,19.45266667,20.18502703,20.92588889,21.66318919,22.37313514,23.06427027,23.76162162,24.42133333,25.04254054,25.63677778,26.19902703,26.75243243,27.26077778,27.74633333,28.17383784,28.62433333,29.02854054,29.41133333,29.77205405,30.10133333,30.43448649,30.7425,31.01088889,31.32081081,31.55422222,31.78944444,32.04081081,32.20672222,32.3855,32.57977778,32.74172222,32.8595,32.93966667,33.03411111,33.117,33.10344444,33.05877778,32.982,32.86194444,32.72462857,32.56733333,32.39566667,32.23977778,32.10057143,31.96116667,31.79514286,31.561,31.33445714,31.05133333,30.73788889,30.37548571,30.01472222,29.71702857,29.35017143,29.008,28.727,28.4588,28.31466667,28.18445714,28.11485714,28.09933333,28.072,28.07114286,28.08733333,28.08514286,28.00548571,27.92554286,27.78725714,27.5492,27.1868,26.64611429,25.88617143,24.76282353,23.29114286,21.34085714,18.89582857,16.04702857,13.15702857,10.44811429,8.302857143,6.830285714,6.1528125,5.005538462,4.18837037,3.720230769,3.460962963,3.33,3.258888889,3.253333333,3.282,3.363230769,3.473111111,3.622,3.793846154,4.014769231,4.267481481,4.550307692,4.848461538,5.173407407,5.543384615,5.928538462,6.334,6.732538462,7.136769231,7.555230769,7.955076923,8.359230769,8.768923077,9.18168,9.558,9.94816,10.29123077,10.65230769,10.98630769,11.34307692,11.7,12.03544,12.41461538,12.77888,13.1424,13.5004,13.85376,14.286,14.6476,15.018,15.4225,15.7704,16.04264,16.31144,16.57466667,16.82176,17.09384,17.305,17.53712,17.7028,17.83472,17.98744,18.04175,18.148,18.29333333,18.42784,18.46333333,18.5875,18.60112,18.642,18.67741667,18.61733333,18.542,18.4115,18.228,17.9715,17.60591667,17.29304348,16.862,16.47025,16.12,15.7685,15.3845,15.18075,15.00033333,14.70582609,14.4233913,14.12513043,13.82808696,13.65147826,13.46391304,13.12191304,12.7933913,12.5533913,12.18208696,11.98954545,11.7746087,11.61669565,11.51527273,11.42547826,11.30478261,11.09504348,10.65947826,10.16490909,9.710454545,9.346,9.010086957,8.716,8.39,8.16,7.899454545,7.740363636,7.488545455,7.313636364,7.133909091,6.804363636,6.627,6.298545455,5.995727273,5.794190476,5.598454545,5.458363636,5.312090909,5.186761905,5.032545455,4.988285714,4.996380952
46.73278947,46.91552632,47.11547368,47.283,47.38168421,47.46605263,47.54073684,47.58289474,47.66,47.69652632,47.73173684,47.75363158,47.75542105,47.746,47.75126316,47.73757895,47.67484211,47.63308108,47.56505263,47.55715789,47.49126316,47.42147368,47.34726316,47.22,47.11678947,46.93368421,46.63894737,46.20142105,45.64073684,45.03789189,44.55042105,44.18336842,44.02484211,43.90616216,43.80931579,43.71889474,43.62513514,43.53831579,43.46515789,43.46832432,43.47384211,43.49740541,43.53726316,43.58021622,43.633,43.71131579,43.76442105,43.79578378,43.82684211,43.8687027,43.89547368,43.90762162,43.8972973,43.86768421,43.81610526,43.74926316,43.60513514,43.48052632,43.33259459,43.14210526,42.88108108,42.58891892,42.23747368,41.84097297,41.37294737,40.80318919,40.18947368,39.55594595,38.96908108,38.39557895,37.84702703,37.30210526,36.74172973,35.97956757,34.97852632,33.60021622,31.61156757,29.05297297,26.19810811,23.30886486,20.69108108,18.55054054,16.99189189,15.87027027,15.05454054,14.52848649,14.16686486,13.93891892,13.80918919,13.75675676,13.75913514,13.82994595,13.99232432,14.28297297,14.6927027,15.20733333,15.78416216,16.40367568,17.04702703,17.74466667,18.43756757,19.151,19.86540541,20.56043243,21.22427027,21.92162162,22.58844444,23.218,23.82411111,24.40659459,24.97524324,25.50466667,26.012,26.46610811,26.93133333,27.35956757,27.76383333,28.14151351,28.494,28.84210811,29.163,29.44444444,29.76281081,30.01111111,30.25066667,30.50281081,30.67727778,30.855,31.05433333,31.225,31.33833333,31.41783333,31.50811111,31.57583333,31.55038889,31.49127778,31.3955,31.265,31.11422857,30.94333333,30.77,30.60755556,30.4428,30.283,30.10771429,29.86233333,29.62754286,29.3375,29.01733333,28.64457143,28.28272222,27.97805714,27.60731429,27.25748571,26.979,26.72977143,26.60133333,26.50034286,26.4492,26.4365,26.426,26.43828571,26.455,26.45822857,26.38748571,26.30885714,26.15874286,25.9152,25.5296,24.96051429,24.15651429,22.99,21.49857143,19.56485714,17.16251429,14.47634286,11.85348571,9.487828571,7.693542857,6.517142857,5.9248125,4.910153846,4.217185185,3.815230769,3.593851852,3.472,3.395555556,3.372,3.376666667,3.428461538,3.506222222,3.616,3.745846154,3.915076923,4.106,4.311538462,4.548,4.802222222,5.093307692,5.391692308,5.712,6.029307692,6.356230769,6.697538462,7.016769231,7.353230769,7.708307692,8.0468,8.378,8.71504,9.018,9.332153846,9.626153846,9.955384615,10.29584,10.61088,10.98123077,11.318,11.66528,12.01256,12.34936,12.7492,13.0936,13.4488,13.81725,14.13888,14.37928,14.6176,14.84666667,15.05608,15.30552,15.4885,15.70608,15.8464,15.95664,16.0728,16.1295,16.228,16.37283333,16.49432,16.53466667,16.663,16.67912,16.71875,16.73591667,16.686,16.6385,16.5035,16.33366667,16.12383333,15.77391667,15.4793913,15.0865,14.7415,14.414,14.11175,13.7785,13.591,13.43041667,13.1346087,12.90513043,12.61869565,12.36947826,12.20626087,12.00965217,11.67721739,11.37634783,11.13513043,10.80695652,10.59172727,10.43304348,10.28130435,10.22927273,10.18921739,10.09095652,9.91773913,9.505913043,9.029818182,8.626363636,8.314,7.988695652,7.707,7.455545455,7.276,7.050181818,6.907454545,6.707818182,6.589636364,6.462363636,6.164,6.033818182,5.696363636,5.525727273,5.290666667,5.144636364,5.018727273,4.875727273,4.721619048,4.695818182,4.605619048,4.699904762
46.56864035,46.79991228,47.07442982,47.29135965,47.44486842,47.60311404,47.71017544,47.74837719,47.81614035,47.86907895,47.90570175,47.92758772,47.94149123,47.93416667,47.93635965,47.9252193,47.87315789,47.84626126,47.76052632,47.74535088,47.66921053,47.5777193,47.50780702,47.37280702,47.26328947,47.07048246,46.76236842,46.30486842,45.7072807,45.05378378,44.51719298,44.09640351,43.94701754,43.83414414,43.76013158,43.69701754,43.6345045,43.57026316,43.50052632,43.51977477,43.53276316,43.56297297,43.61508772,43.65518018,43.70333333,43.785,43.83622807,43.85734234,43.89596491,43.94427928,43.97640351,43.98842342,43.97653153,43.95236842,43.9054386,43.83276316,43.67333333,43.5395614,43.37310811,43.16631579,42.8890991,42.57454955,42.19096491,41.75094595,41.24561404,40.62990991,39.97210526,39.28490991,38.64612613,38.01526316,37.41558559,36.82561404,36.21297297,35.40076577,34.33508772,32.88445946,30.79148649,28.1004955,25.13833333,22.1659009,19.5131982,17.38671171,15.88472973,14.84081081,14.11504505,13.66522523,13.37756757,13.21405405,13.13513514,13.11738739,13.15220721,13.24130631,13.41373874,13.70986486,14.12788288,14.64694444,15.23477477,15.8659009,16.52013514,17.23777778,17.94990991,18.67990741,19.41536036,20.13527027,20.83477477,21.5536036,22.2462963,22.91558559,23.55518519,24.15990991,24.76725225,25.33361111,25.88138889,26.36684685,26.87138889,27.32941441,27.75583333,28.14986486,28.51277778,28.86788288,29.19666667,29.4712963,29.78837838,30.03037037,30.25981481,30.5081982,30.67722222,30.84541667,31.03310185,31.18337963,31.28625,31.36152778,31.44138889,31.51138889,31.48393519,31.44375,31.37583333,31.27435185,31.17414286,31.05722222,30.91,30.73740741,30.54714286,30.33430556,30.10833333,29.8325,29.58319048,29.2762963,28.94777778,28.54847619,28.14291667,27.78233333,27.36661905,26.97609524,26.6575,26.36328571,26.21111111,26.07838095,26.00338095,25.96430556,25.93333333,25.925,25.93,25.90590476,25.81514286,25.70466667,25.51757143,25.22138095,24.775,24.14657143,23.27833333,22.03970588,20.48809524,18.51619048,16.09914286,13.48819048,11.04395238,8.933238095,7.401666667,6.45547619,5.9065625,5.063589744,4.519074074,4.197371795,4.037098765,3.943333333,3.873148148,3.847777778,3.848888889,3.895384615,3.961666667,4.06,4.171538462,4.314423077,4.478580247,4.659358974,4.858076923,5.077654321,5.329871795,5.599358974,5.885,6.163653846,6.463717949,6.767179487,7.064871795,7.380512821,7.705,8.049933333,8.371666667,8.711333333,9.029294872,9.347692308,9.655064103,9.984230769,10.3214,10.6318,11.00128205,11.35213333,11.69346667,12.0536,12.39746667,12.8104,13.15866667,13.51433333,13.89104167,14.21646667,14.46253333,14.70133333,14.93666667,15.14833333,15.41133333,15.595,15.8118,15.95566667,16.06053333,16.16993333,16.19527778,16.24666667,16.34208333,16.42866667,16.44277778,16.51958333,16.50506667,16.51,16.50583333,16.45319444,16.37895833,16.23583333,16.09583333,15.90513889,15.615625,15.3873913,15.0775,14.80083333,14.55916667,14.32625,14.04333333,13.86166667,13.65520833,13.34507246,13.10427536,12.86688406,12.61,12.45137681,12.25681159,11.91521739,11.6,11.36217391,11.01586957,10.81189394,10.61543478,10.46876812,10.39121212,10.33724638,10.25724638,10.0965942,9.671449275,9.206363636,8.819621212,8.52,8.243913043,8.029166667,7.774242424,7.638333333,7.446363636,7.355757576,7.18969697,7.114545455,7.016439394,6.779469697,6.59,6.335,6.18280303,5.986269841,5.838484848,5.766212121,5.68780303,5.497619048,5.482272727,5.390396825,5.497857143
42.36666667,42.57048246,42.81899123,43.0077193,43.12833333,43.2425,43.3354386,43.38442982,43.44539474,43.47653509,43.5147807,43.53302632,43.53359649,43.52166667,43.51925439,43.50065789,43.44627193,43.40900901,43.32947368,43.30605263,43.23578947,43.1554386,43.07324561,42.94640351,42.83986842,42.64438596,42.34614035,41.9045614,41.32526316,40.69855856,40.1654386,39.76078947,39.6022807,39.49693694,39.42552632,39.36184211,39.29486486,39.23122807,39.165,39.16671171,39.17881579,39.20545045,39.25675439,39.30599099,39.35833333,39.43320175,39.48719298,39.5263964,39.5625,39.59648649,39.6245614,39.63333333,39.62418919,39.59333333,39.54114035,39.46864035,39.32495495,39.20026316,39.04400901,38.85482456,38.59481982,38.28945946,37.92938596,37.51779279,37.03263158,36.44630631,35.82188596,35.1681982,34.54378378,33.93824561,33.35968468,32.79254386,32.19184685,31.41297297,30.4075,29.04986486,27.1018018,24.60864865,21.86135135,19.12247748,16.67666667,14.7218018,13.33963964,12.38355856,11.73121622,11.33301802,11.08036036,10.94400901,10.88923423,10.8881982,10.92454955,11.01635135,11.17031532,11.44189189,11.81576577,12.28666667,12.8213964,13.39292793,13.98472973,14.63,15.27477477,15.92685185,16.58873874,17.23063063,17.84941441,18.50027027,19.11555556,19.69720721,20.26259259,20.80279279,21.33175676,21.82657407,22.30472222,22.7381982,23.18027778,23.5859009,23.96805556,24.32612613,24.67,25.00351351,25.31458333,25.58935185,25.89495495,26.13240741,26.36416667,26.6131982,26.78689815,26.96416667,27.15689815,27.3100463,27.41291667,27.47949074,27.54777778,27.6,27.58740741,27.56759259,27.51458333,27.42041667,27.30547619,27.17203704,27.02527778,26.88074074,26.72204762,26.5599537,26.3702381,26.125,25.87880952,25.5700463,25.22833333,24.84761905,24.47157407,24.14128571,23.75461905,23.38471429,23.07333333,22.79395238,22.64388889,22.52747619,22.46733333,22.44513889,22.425,22.42547619,22.43055556,22.42219048,22.33971429,22.24638095,22.08704762,21.83219048,21.44033333,20.87409524,20.09428571,18.97607843,17.56142857,15.77428571,13.58780952,11.24733333,9.083142857,7.249333333,5.940952381,5.149428571,4.473541667,3.654230769,3.210740741,2.958782051,2.844567901,2.785,2.758703704,2.772777778,2.802777778,2.856923077,2.91462963,2.998333333,3.092820513,3.215128205,3.361296296,3.51525641,3.691538462,3.879074074,4.097307692,4.330448718,4.579166667,4.820448718,5.076730769,5.338076923,5.591153846,5.853076923,6.133589744,6.415333333,6.676666667,6.9494,7.20275641,7.450769231,7.686730769,7.93974359,8.201066667,8.440666667,8.718333333,8.979266667,9.246666667,9.524533333,9.796,10.12946667,10.412,10.706,11.01541667,11.27906667,11.47986667,11.68346667,11.88888889,12.08633333,12.31226667,12.49166667,12.701,12.86033333,12.98233333,13.09673333,13.13486111,13.19,13.30381944,13.39486667,13.42472222,13.50125,13.51553333,13.54125,13.54701389,13.496875,13.42645833,13.32125,13.18833333,12.99208333,12.72361111,12.48137681,12.15875,11.86,11.565,11.28583333,10.98958333,10.82125,10.69104167,10.4784058,10.27384058,10.0392029,9.789637681,9.632898551,9.483768116,9.201884058,8.939855072,8.749130435,8.478115942,8.300530303,8.143623188,8.053115942,8.002878788,7.996956522,7.926811594,7.800797101,7.418333333,6.999848485,6.671060606,6.391666667,6.182681159,5.940833333,5.736212121,5.6,5.452272727,5.321515152,5.19030303,5.124090909,5.034469697,4.845075758,4.666969697,4.440606061,4.310909091,4.156746032,4.000984848,3.940909091,3.770151515,3.757857143,3.735606061,3.682301587,3.678650794
46.97968421,47.20889474,47.47647368,47.69331579,47.84857895,47.98121053,48.09363158,48.14531579,48.22768421,48.27947368,48.32326316,48.36005263,48.37510526,48.38,48.38,48.36542105,48.32378947,48.29935135,48.22105263,48.21568421,48.15031579,48.06747368,47.994,47.87347368,47.78268421,47.59910526,47.32673684,46.90521053,46.32863158,45.67854054,45.11947368,44.67989474,44.48673684,44.36032432,44.26531579,44.17489474,44.10075676,44.02757895,43.96231579,43.96140541,43.97384211,43.99432432,44.03294737,44.07518919,44.126,44.20221053,44.25273684,44.28772973,44.33063158,44.37605405,44.41242105,44.42886486,44.42237838,44.40252632,44.35568421,44.28952632,44.14254054,44.02042105,43.86378378,43.66810526,43.40383784,43.0952973,42.72589474,42.30151351,41.79947368,41.19756757,40.545,39.86810811,39.22745946,38.58778947,37.98486486,37.40842105,36.8167027,36.04497297,35.02789474,33.62816216,31.60935135,28.95594595,25.93135135,22.82745946,19.99259459,17.67389189,15.98459459,14.77918919,13.92394595,13.36891892,12.98756757,12.74059459,12.60286486,12.53691892,12.52778378,12.58508108,12.73059459,12.99432432,13.38621622,13.88983333,14.47432432,15.10589189,15.76664865,16.48933333,17.21664865,17.96066667,18.71983784,19.46464865,20.20648649,20.95027027,21.67955556,22.37967568,23.05266667,23.70518919,24.34751351,24.94533333,25.518,26.04275676,26.57433333,27.06335135,27.5145,27.93767568,28.33,28.71378378,29.06716667,29.38377778,29.71816216,29.97511111,30.23844444,30.51043243,30.70233333,30.895,31.11316667,31.29533333,31.43083333,31.51444444,31.61583333,31.69883333,31.691,31.65994444,31.591,31.49016667,31.37531429,31.25288889,31.114,30.96333333,30.80354286,30.62611111,30.40942857,30.13033333,29.86742857,29.54944444,29.20444444,28.8056,28.40661111,28.04725714,27.62474286,27.22891429,26.9,26.59302857,26.424,26.28548571,26.2068,26.17783333,26.156,26.16485714,26.17666667,26.16977143,26.10211429,26.00525714,25.83731429,25.56782857,25.144,24.53234286,23.67114286,22.442,20.86342857,18.84171429,16.36942857,13.6308,10.9824,8.65,6.893771429,5.761257143,5.098,4.152,3.533481481,3.193153846,3.00562963,2.9,2.830666667,2.810444444,2.816666667,2.858307692,2.926666667,3.022,3.138,3.289923077,3.455407407,3.636307692,3.846769231,4.067407407,4.326153846,4.605384615,4.899,5.194,5.496076923,5.812461538,6.115846154,6.433384615,6.771230769,7.1248,7.45,7.79704,8.114846154,8.445538462,8.772692308,9.114615385,9.47352,9.82128,10.20876923,10.57688,10.94696,11.3288,11.69088,12.124,12.486,12.866,13.25575,13.59128,13.8524,14.09176,14.32666667,14.54208,14.78552,14.963,15.17904,15.3264,15.44768,15.56128,15.60566667,15.696,15.81666667,15.91656,15.95666667,16.0475,16.07768,16.121,16.1365,16.10708333,16.04975,15.9285,15.793,15.58516667,15.27541667,15.04452174,14.701,14.383,14.107,13.81875,13.5505,13.33825,13.15025,12.85773913,12.59295652,12.33147826,12.0733913,11.90591304,11.68486957,11.31617391,10.97495652,10.72652174,10.35643478,10.142,9.941565217,9.795826087,9.736181818,9.681565217,9.584086957,9.390782609,8.976869565,8.466545455,8.087636364,7.728,7.467130435,7.207,6.959909091,6.782,6.571090909,6.439454545,6.272545455,6.146909091,6.004545455,5.768272727,5.606363636,5.352181818,5.159727273,4.976666667,4.756818182,4.698545455,4.540545455,4.440380952,4.348,4.26,4.338
42.00410526,42.22897436,42.48305263,42.70610526,42.83153846,42.94636842,43.03569231,43.07789474,43.15705263,43.20061538,43.24594737,43.27452632,43.30321053,43.30892308,43.316,43.30715789,43.29305263,43.27515789,43.22894737,43.21133333,43.16005263,43.09115789,43.02,42.92110526,42.84205263,42.67215789,42.402,41.99631579,41.47,40.90836842,40.43831579,40.11226316,39.96621053,39.88526316,39.83,39.77242105,39.72368421,39.67715789,39.63831579,39.66443243,39.68121053,39.72010526,39.77545946,39.82915789,39.88547368,39.96562162,40.01752632,40.05637838,40.09526316,40.13821622,40.171,40.18689474,40.17978947,40.16021622,40.12752632,40.07326316,39.93852632,39.82151351,39.67513514,39.49947368,39.26405405,38.98831579,38.64718919,38.25468421,37.79684211,37.24886486,36.64897297,36.04859459,35.46610811,34.90031579,34.35556757,33.82273684,33.25572973,32.51,31.51052632,30.13043243,28.15540541,25.61972973,22.84368421,19.98086486,17.47427027,15.46972973,14.05427027,13.07318919,12.39910526,11.98622222,11.71863158,11.56844444,11.49957895,11.49111111,11.52956757,11.62372973,11.79935135,12.09810811,12.51486486,13.02340541,13.601,14.22491892,14.86318919,15.554,16.24956757,16.95210811,17.65983333,18.35859459,19.03335135,19.734,20.39832432,21.05140541,21.67151351,22.27994444,22.854,23.39843243,23.92421622,24.39244444,24.86016216,25.29713514,25.70533333,26.08594595,26.44913514,26.78466667,27.09902703,27.37783333,27.68166667,27.91302703,28.13377778,28.36455556,28.53955556,28.71177778,28.89,29.04594595,29.13666667,29.21355556,29.28877778,29.348,29.30044444,29.25733333,29.179,29.06622222,28.95433333,28.84,28.69222222,28.52333333,28.392,28.21444444,27.99533333,27.75331429,27.52116667,27.21294444,26.89805714,26.54133333,26.18933333,25.83633333,25.45605556,25.11828571,24.81555556,24.5492,24.35342857,24.23,24.16508571,24.12537143,24.10811111,24.11261111,24.104,24.07755556,24.00468571,23.92688889,23.7628,23.48255556,23.10548571,22.52217143,21.72355556,20.59,19.10285714,17.29091429,15.0144,12.50308571,10.054,7.926342857,6.341485714,5.326514286,4.743935484,3.772592593,3.198888889,2.882074074,2.722222222,2.633538462,2.577259259,2.584592593,2.603111111,2.649185185,2.712148148,2.802074074,2.906,3.035692308,3.184615385,3.349407407,3.526307692,3.736,3.972769231,4.223846154,4.492692308,4.774769231,5.050846154,5.329,5.621153846,5.912230769,6.225230769,6.539846154,6.859307692,7.1652,7.465538462,7.767384615,8.061615385,8.3852,8.70512,9.0444,9.3988,9.735615385,10.0816,10.41976,10.762,11.13888,11.48084615,11.82176,12.19416,12.47872,12.7124,12.9504,13.146,13.33283333,13.54,13.70096,13.8924,14.0248,14.11664,14.2516,14.266,14.349,14.46048,14.55333333,14.57496,14.66316667,14.67975,14.70432,14.723,14.67733333,14.62,14.5095,14.36625,14.1935,13.93121739,13.687,13.36843478,13.07817391,12.813,12.54375,12.2645,12.05869565,11.87475,11.60156522,11.38704348,11.14252174,10.90234783,10.73626087,10.542,10.23417391,9.909826087,9.665391304,9.309217391,9.096869565,8.908869565,8.749304348,8.672086957,8.606727273,8.572727273,8.478636364,8.101636364,7.650956522,7.269565217,6.938,6.655909091,6.408347826,6.171454545,5.988,5.765272727,5.641,5.50752381,5.431818182,5.306909091,5.057818182,4.918909091,4.688666667,4.490181818,4.311636364,4.165454545,4.082,3.928857143,3.784,3.772190476,3.627363636,3.662
40.97710526,41.16668421,41.42431579,41.63394737,41.77473684,41.909,42.02026316,42.08089474,42.16168421,42.22147368,42.26305263,42.29284211,42.32036842,42.327,42.33363158,42.33742105,42.29578947,42.27605405,42.20547368,42.20452632,42.14915789,42.07821053,42.018,41.90568421,41.82289474,41.65121053,41.38673684,40.98468421,40.44247368,39.83767568,39.33126316,38.93147368,38.77652632,38.66535135,38.58310526,38.52147368,38.46075676,38.39494737,38.33915789,38.36135135,38.38331579,38.41648649,38.46431579,38.50756757,38.559,38.63768421,38.68936842,38.72189189,38.76189474,38.80805405,38.84726316,38.87172973,38.86918919,38.85357895,38.81515789,38.75310526,38.62021622,38.51031579,38.36740541,38.18589474,37.94043243,37.652,37.30936842,36.91821622,36.45621053,35.89805405,35.29926316,34.66497297,34.07,33.48347368,32.9272973,32.39,31.83810811,31.11664865,30.18278947,28.89464865,27.03183784,24.61324324,21.87945946,19.10610811,16.60454054,14.58410811,13.13843243,12.12627027,11.412,10.95740541,10.65751351,10.47086486,10.36837838,10.32589189,10.32805405,10.38416216,10.50983784,10.74589189,11.08859459,11.528,12.03702703,12.58335135,13.15837838,13.794,14.42924324,15.08533333,15.76016216,16.42005405,17.07005405,17.73843243,18.39311111,19.01848649,19.62977778,20.22043243,20.80345946,21.34788889,21.87316667,22.34745946,22.828,23.27102703,23.69133333,24.07151351,24.43066667,24.77891892,25.10083333,25.37383333,25.67978378,25.91133333,26.14222222,26.38502703,26.55527778,26.7285,26.90922222,27.06772222,27.17633333,27.24633333,27.31994444,27.38583333,27.36322222,27.32622222,27.2635,27.16672222,27.07182857,26.96777778,26.84,26.69533333,26.53554286,26.3645,26.16914286,25.922,25.68491429,25.40461111,25.09888889,24.75714286,24.399,24.07445714,23.69194286,23.33445714,23.035,22.75382857,22.59733333,22.46548571,22.38514286,22.35316667,22.32,22.32571429,22.33533333,22.32274286,22.25485714,22.16771429,22.00874286,21.76131429,21.3812,20.83645714,20.07628571,18.98741176,17.59342857,15.798,13.65514286,11.31411429,9.072628571,7.133142857,5.720571429,4.838971429,4.261625,3.483846154,3.028222222,2.757230769,2.610592593,2.536,2.48,2.466444444,2.470666667,2.496,2.550444444,2.623333333,2.706923077,2.817846154,2.946666667,3.086153846,3.241384615,3.407703704,3.606538462,3.821769231,4.051,4.276153846,4.512923077,4.757692308,5.005076923,5.258153846,5.532615385,5.81152,6.08,6.35816,6.618307692,6.888153846,7.156076923,7.443076923,7.7492,8.0488,8.380153846,8.7064,9.0192,9.34416,9.65584,10.02608,10.3432,10.6564,10.9885,11.2664,11.47832,11.67152,11.86133333,12.03584,12.23656,12.3725,12.54696,12.6692,12.75392,12.85272,12.88216667,12.944,13.0485,13.13792,13.16133333,13.233,13.2524,13.2625,13.26958333,13.21858333,13.1605,13.0415,12.90666667,12.73266667,12.50608333,12.29895652,12.0015,11.75025,11.517,11.274,11.034,10.8635,10.68766667,10.44486957,10.23017391,10.00095652,9.800521739,9.63,9.456086957,9.163043478,8.873565217,8.631565217,8.327652174,8.140181818,7.97973913,7.858173913,7.816181818,7.777565217,7.723478261,7.581826087,7.220434783,6.815090909,6.457818182,6.186,5.958434783,5.75,5.550636364,5.408,5.242181818,5.164181818,5.052909091,4.954545455,4.872363636,4.661727273,4.492,4.282727273,4.122272727,3.990857143,3.845727273,3.748,3.620272727,3.592190476,3.548363636,3.398571429,3.522571429
43.37894737,43.5895614,43.82802632,44.05583333,44.20824561,44.34692982,44.46692982,44.54289474,44.6352193,44.70135965,44.75438596,44.7922807,44.80302632,44.80416667,44.81074561,44.78921053,44.73179825,44.68378378,44.59982456,44.57377193,44.48964912,44.39842105,44.30561404,44.15429825,44.00745614,43.7672807,43.38570175,42.8172807,42.07548246,41.2940991,40.65903509,40.18482456,39.97535088,39.82157658,39.71627193,39.62245614,39.53166667,39.44921053,39.38429825,39.39558559,39.4095614,39.43810811,39.50210526,39.55761261,39.61833333,39.7,39.75991228,39.80797297,39.85837719,39.91117117,39.95342105,39.9831982,39.9731982,39.94745614,39.89350877,39.81565789,39.65103604,39.49614035,39.29783784,39.05298246,38.72801802,38.34445946,37.89868421,37.38626126,36.78140351,36.08252252,35.33302632,34.5640991,33.84036036,33.14684211,32.49459459,31.85877193,31.19481982,30.33031532,29.19635965,27.65720721,25.49490991,22.81067568,19.93094595,17.19355856,14.84054054,13.01252252,11.74238739,10.85725225,10.23612613,9.83027027,9.556981982,9.379234234,9.272657658,9.21981982,9.206036036,9.246846847,9.349864865,9.546576577,9.831261261,10.19972222,10.63144144,11.09797297,11.59490991,12.14611111,12.70995495,13.29601852,13.90171171,14.50211712,15.09927928,15.72018018,16.33222222,16.9209009,17.49972222,18.06391892,18.62054054,19.15203704,19.66194444,20.13135135,20.60916667,21.05594595,21.47097222,21.85837838,22.22888889,22.58153153,22.9125,23.20259259,23.50995495,23.75388889,23.99287037,24.23671171,24.41722222,24.58666667,24.76689815,24.92708333,25.03625,25.11333333,25.18625,25.25236111,25.24268519,25.19893519,25.1275,25.02388889,24.9107619,24.79148148,24.65722222,24.49425926,24.30509524,24.10101852,23.88738095,23.63,23.38109524,23.0949537,22.7862037,22.4297619,22.06685185,21.74138095,21.37147619,21.027,20.74833333,20.50014286,20.36166667,20.25328571,20.19819048,20.18208333,20.17833333,20.19,20.20305556,20.20185714,20.14061905,20.0532381,19.89357143,19.64204762,19.25366667,18.69571429,17.92942857,16.84843137,15.49857143,13.82619048,11.87233333,9.852047619,8.024809524,6.533095238,5.508142857,4.915904762,4.29609375,3.602179487,3.245679012,3.042051282,2.943148148,2.88,2.843888889,2.840185185,2.851666667,2.877307692,2.913148148,2.964444444,3.023333333,3.097948718,3.183703704,3.282820513,3.389102564,3.505679012,3.650641026,3.803525641,3.965,4.123589744,4.278333333,4.448205128,4.614871795,4.799487179,4.995833333,5.202533333,5.406666667,5.617266667,5.810128205,6.013589744,6.207884615,6.426153846,6.654133333,6.868466667,7.124358974,7.372466667,7.626,7.895266667,8.156866667,8.470066667,8.742,9.028333333,9.317916667,9.556866667,9.7374,9.917066667,10.10333333,10.275,10.47173333,10.63125,10.82306667,10.94966667,11.04053333,11.11493333,11.149375,11.19166667,11.26541667,11.35986667,11.3725,11.4325,11.43753333,11.44479167,11.44618056,11.39458333,11.33020833,11.22708333,11.1,10.96555556,10.766875,10.59369565,10.33916667,10.1125,9.9,9.706875,9.477916667,9.322708333,9.176875,8.944637681,8.768913043,8.600942029,8.397971014,8.267318841,8.112898551,7.845289855,7.623695652,7.421521739,7.162318841,7.022348485,6.897681159,6.813623188,6.822878788,6.869637681,6.860072464,6.732246377,6.377536232,5.992121212,5.684015152,5.453333333,5.250869565,5.105833333,4.940075758,4.845,4.728181818,4.679393939,4.604242424,4.56,4.493712121,4.360833333,4.251742424,4.095606061,3.942878788,3.853730159,3.690530303,3.659393939,3.556742424,3.528650794,3.485,3.467777778,3.540238095
48.27993421,48.56203947,48.89605263,49.19013158,49.40230263,49.57029605,49.68970395,49.74029605,49.79901316,49.82371711,49.84513158,49.85384868,49.85105263,49.815,49.78608553,49.73523026,49.65355263,49.59155405,49.48368421,49.41440789,49.28453947,49.14177632,49.01796053,48.84967105,48.68516447,48.41815789,48.02588816,47.45601974,46.708125,45.90206081,45.21388158,44.71447368,44.49026316,44.33885135,44.24299342,44.15618421,44.07804054,43.98967105,43.90217105,43.88844595,43.88707237,43.91486486,43.96302632,43.99966216,44.04875,44.11657895,44.16394737,44.19168919,44.22322368,44.26418919,44.28328947,44.28743243,44.26945946,44.22986842,44.16407895,44.06891447,43.88135135,43.70828947,43.4985473,43.24697368,42.92236486,42.53685811,42.07098684,41.54415541,40.93960526,40.2202027,39.45638158,38.65814189,37.905,37.16973684,36.47662162,35.79776316,35.08192568,34.16442568,32.96467105,31.34665541,29.03918919,26.11817568,22.94317568,19.83192568,17.10138514,14.95037162,13.44962838,12.42344595,11.72307432,11.29719595,11.02547297,10.86807432,10.79402027,10.78125,10.81408784,10.89881757,11.06523649,11.34773649,11.75280405,12.25791667,12.83695946,13.45918919,14.11304054,14.82375,15.5410473,16.27527778,17.02351351,17.75618243,18.48064189,19.21209459,19.93194444,20.61574324,21.28388889,21.92493243,22.54972973,23.13791667,23.713125,24.23317568,24.75333333,25.2389527,25.6928125,26.10662162,26.49708333,26.87462838,27.228125,27.5421875,27.87493243,28.13236111,28.38777778,28.65334459,28.845625,29.038125,29.24017361,29.41225694,29.53229167,29.61416667,29.71138889,29.79135417,29.78972222,29.76048611,29.7059375,29.61503472,29.50871429,29.39083333,29.248125,29.08180556,28.88535714,28.67184028,28.42910714,28.13104167,27.84360714,27.50336806,27.11902778,26.67996429,26.23822917,25.84196429,25.38467857,24.95632143,24.589375,24.26357143,24.07,23.92864286,23.85103571,23.81375,23.7825,23.77446429,23.76625,23.74303571,23.64382143,23.51782143,23.31807143,23.00921429,22.53775,21.86589286,20.95503571,19.67316176,18.06178571,16.06357143,13.64092857,11.1035,8.824,6.978892857,5.735607143,5.061964286,4.434921875,3.727115385,3.345972222,3.147067308,3.046944444,2.985,2.952361111,2.941944444,2.925416667,2.947596154,2.976944444,3.02875,3.094134615,3.183701923,3.287314815,3.401730769,3.530673077,3.676759259,3.858701923,4.054326923,4.270625,4.481682692,4.706586538,4.946346154,5.185384615,5.445,5.726730769,6.01595,6.305,6.6025,6.888942308,7.169134615,7.445240385,7.738846154,8.03725,8.3269,8.664038462,8.9829,9.3082,9.64215,9.9746,10.36475,10.71175,11.062,11.42359375,11.7359,11.9795,12.2251,12.4625,12.6904,12.9417,13.145,13.37135,13.53975,13.65175,13.7555,13.77890625,13.83125,13.91453125,13.98635,14.00125,14.0765625,14.0847,14.088125,14.07833333,14.02708333,13.9753125,13.855625,13.71395833,13.52947917,13.27317708,13.04266304,12.735,12.45984375,12.201875,11.94703125,11.678125,11.49890625,11.30484375,11.04826087,10.82201087,10.57358696,10.30788043,10.13179348,9.93,9.620652174,9.315380435,9.071467391,8.740652174,8.552897727,8.377391304,8.248043478,8.198181818,8.186793478,8.117065217,7.957771739,7.537554348,7.099090909,6.728522727,6.43625,6.186630435,5.98875,5.801761364,5.6825,5.492045455,5.456022727,5.350113636,5.312159091,5.204431818,4.976477273,4.898352273,4.655340909,4.507329545,4.395892857,4.263863636,4.250909091,4.105965909,4.032857143,4.001022727,3.948333333,4.026369048
41.85563158,42.00794737,42.14689474,42.27931579,42.34247368,42.39284211,42.44863158,42.45273684,42.50142105,42.52189474,42.52468421,42.522,42.52105263,42.507,42.49621053,42.46889474,42.41842105,42.38891892,42.32178947,42.30821053,42.25515789,42.18610526,42.12842105,42.02368421,41.95342105,41.80873684,41.59426316,41.28468421,40.88552632,40.44875676,40.08778947,39.79936842,39.68621053,39.60037838,39.53521053,39.46194737,39.38962162,39.33242105,39.27136842,39.27659459,39.27089474,39.27421622,39.29210526,39.30562162,39.326,39.36410526,39.38557895,39.39497297,39.41231579,39.42762162,39.43894737,39.43351351,39.4172973,39.38578947,39.34157895,39.29642105,39.17864865,39.08263158,38.96410811,38.81694737,38.62124324,38.40810811,38.14863158,37.84410811,37.50168421,37.0747027,36.61536842,36.13848649,35.69048649,35.25684211,34.8387027,34.42547368,33.99940541,33.4172973,32.64573684,31.57005405,29.9892973,27.89308108,25.49605405,22.99443243,20.68216216,18.75859459,17.33318919,16.30481081,15.55745946,15.07356757,14.74437838,14.53772973,14.42064865,14.37118919,14.37567568,14.44897297,14.60362162,14.87908108,15.27097297,15.76083333,16.30967568,16.89675676,17.50183784,18.15533333,18.80308108,19.45855556,20.11324324,20.74837838,21.34378378,21.98297297,22.582,23.14183784,23.68688889,24.20205405,24.70778378,25.17255556,25.6165,26.01648649,26.42,26.78605405,27.12783333,27.442,27.72333333,28.00459459,28.261,28.47577778,28.72524324,28.90488889,29.083,29.27794595,29.40066667,29.528,29.67733333,29.80327778,29.886,29.9425,30.01055556,30.07366667,30.04827778,30.0085,29.941,29.86111111,29.77782857,29.68,29.56,29.44177778,29.30508571,29.16144444,29.01114286,28.8,28.59622857,28.35466667,28.08555556,27.77068571,27.46027778,27.20068571,26.86937143,26.56988571,26.324,26.0836,25.96066667,25.84588571,25.7888,25.75983333,25.74,25.73257143,25.73533333,25.72417143,25.64748571,25.56285714,25.41382857,25.17508571,24.8316,24.318,23.61508571,22.58282353,21.24542857,19.48714286,17.2736,14.72891429,12.192,9.837657143,8.013028571,6.778457143,6.21575,5.228153846,4.502666667,4.081846154,3.829851852,3.708,3.634666667,3.614,3.626,3.689692308,3.780888889,3.902666667,4.042153846,4.228,4.434592593,4.664769231,4.920769231,5.196592593,5.500538462,5.824076923,6.165,6.496153846,6.846461538,7.21,7.553538462,7.903692308,8.285923077,8.6472,9.008,9.37464,9.700153846,10.04969231,10.38915385,10.74353846,11.10808,11.45264,11.84615385,12.20816,12.5748,12.94824,13.29264,13.69776,14.0452,14.3972,14.7655,15.07616,15.31184,15.5372,15.76533333,15.96008,16.18656,16.343,16.52384,16.6472,16.74664,16.85504,16.87225,16.946,17.05041667,17.1484,17.15866667,17.25,17.23864,17.258,17.26483333,17.20475,17.1525,17.035,16.898,16.71583333,16.45958333,16.22834783,15.9115,15.63075,15.403,15.14425,14.8545,14.6985,14.49333333,14.18495652,13.946,13.67565217,13.396,13.2406087,13.03765217,12.6886087,12.3533913,12.09278261,11.72791304,11.50481818,11.27930435,11.11617391,10.98090909,10.88756522,10.75556522,10.5753913,10.13826087,9.679090909,9.288818182,8.948,8.654956522,8.385,8.134181818,7.91,7.685636364,7.550727273,7.286909091,7.172909091,6.983272727,6.673727273,6.550272727,6.221454545,5.999363636,5.784761905,5.597909091,5.465090909,5.304272727,5.13752381,5.086545455,4.941428571,5.041714286
50.89605263,51.07586466,51.28349624,51.45293233,51.56853383,51.66090226,51.73969925,51.75308271,51.78409774,51.78774436,51.79033835,51.78714286,51.76928571,51.73714286,51.71082707,51.6843985,51.62026316,51.56633205,51.46849624,51.43466165,51.3562406,51.26736842,51.19105263,51.06909774,50.9693609,50.78281955,50.52718045,50.16071429,49.69169173,49.17405405,48.73954887,48.40947368,48.25714286,48.15235521,48.07203008,47.9968797,47.92223938,47.83977444,47.76533835,47.76003861,47.75661654,47.76528958,47.78894737,47.81042471,47.83,47.87030075,47.89706767,47.90359073,47.91684211,47.93525097,47.94210526,47.94169884,47.91776062,47.87804511,47.82052632,47.7556391,47.606139,47.49195489,47.35810811,47.19571429,46.96637066,46.70602317,46.40300752,46.05907336,45.65842105,45.15548263,44.61266917,44.06243243,43.54405405,43.02368421,42.53374517,42.0487218,41.52598456,40.82617761,39.92037594,38.67061776,36.81683398,34.36262548,31.56166023,28.62405405,25.89266409,23.616139,21.92540541,20.7207722,19.8623166,19.32007722,18.97243243,18.76710425,18.66965251,18.65640927,18.69355212,18.80984556,19.02559846,19.3919305,19.89733591,20.51654762,21.20907336,21.93478764,22.67926641,23.47714286,24.25567568,25.03777778,25.82501931,26.57505792,27.29030888,28.02471042,28.71968254,29.36976834,29.99857143,30.59138996,31.16162162,31.695,32.20464286,32.65416988,33.11285714,33.53127413,33.92440476,34.28745174,34.61952381,34.94366795,35.24702381,35.51031746,35.80436293,36.02507937,36.24888889,36.4865251,36.63162698,36.78464286,36.97218254,37.12555556,37.22511905,37.29380952,37.37615079,37.45452381,37.43757937,37.40218254,37.33035714,37.23043651,37.11440816,36.99285714,36.8547619,36.70507937,36.56012245,36.40265873,36.22653061,35.97952381,35.74322449,35.4543254,35.13349206,34.75436735,34.38714286,34.06897959,33.67706122,33.30755102,33.00571429,32.72608163,32.58857143,32.47322449,32.40693878,32.37892857,32.34857143,32.34040816,32.34761905,32.34036735,32.2455102,32.14208163,31.97481633,31.69612245,31.28228571,30.67044898,29.82857143,28.58773109,26.99632653,24.87387755,22.14473469,19.00081633,15.87653061,12.91963265,10.56530612,8.923346939,8.357946429,7.072197802,6.077089947,5.483351648,5.15037037,4.96,4.845079365,4.819047619,4.846190476,4.955494505,5.106349206,5.314761905,5.556373626,5.849945055,6.186931217,6.53989011,6.928901099,7.338306878,7.797747253,8.269505495,8.757142857,9.237747253,9.72956044,10.22725275,10.70351648,11.18054945,11.67774725,12.17502857,12.62285714,13.08057143,13.50967033,13.94164835,14.35137363,14.77648352,15.2132,15.62394286,16.08747253,16.51434286,16.93691429,17.3656,17.7692,18.25988571,18.65942857,19.06542857,19.51196429,19.89297143,20.17771429,20.45422857,20.73,20.97845714,21.26805714,21.44642857,21.68657143,21.84028571,21.95582857,22.09731429,22.13720238,22.21142857,22.34327381,22.46988571,22.48357143,22.59785714,22.59085714,22.60946429,22.62380952,22.55547619,22.46803571,22.32071429,22.15142857,21.91892857,21.56744048,21.27931677,20.86785714,20.50464286,20.17857143,19.83357143,19.46071429,19.24178571,19.02761905,18.6957764,18.37652174,18.05,17.71024845,17.54459627,17.30465839,16.89161491,16.49099379,16.19937888,15.76223602,15.51902597,15.2336646,15.03670807,14.85623377,14.71198758,14.5584472,14.30242236,13.80962733,13.23012987,12.74077922,12.32857143,11.9478882,11.58142857,11.24071429,10.95714286,10.64779221,10.44584416,10.18181818,9.96961039,9.678961039,9.298831169,9.040324675,8.639350649,8.389480519,8.080272109,7.80512987,7.616883117,7.376753247,7.198571429,7.082077922,6.941088435,7.058367347
44.20513158,44.40410256,44.68631579,45.05789474,45.21653846,45.37032895,45.50038462,45.57710526,45.68710526,45.74807692,45.79598684,45.83407895,45.85052632,45.85269231,45.85,45.81013158,45.75828947,45.69789474,45.61657895,45.57038462,45.47802632,45.36368421,45.25625,45.09782895,44.9225,44.62217105,44.15546053,43.46986842,42.60868421,41.74447368,41.06223684,40.62434211,40.42697368,40.31190789,40.24,40.16644737,40.09986842,40.02565789,39.97223684,39.98966216,40.00769737,40.05736842,40.11986486,40.17842105,40.24026316,40.31939189,40.38578947,40.43918919,40.495,40.53736486,40.5775,40.60677632,40.59684211,40.55932432,40.48855263,40.39289474,40.20394737,40.00743243,39.77067568,39.49302632,39.11831081,38.67105263,38.1522973,37.57171053,36.89092105,36.10209459,35.26135135,34.43351351,33.63202703,32.87973684,32.16614865,31.47407895,30.72655405,29.73864865,28.42190789,26.65324324,24.21486486,21.2672973,18.245,15.37736486,13.0427027,11.29,10.11614865,9.323918919,8.785328947,8.451388889,8.22875,8.096527778,8.024868421,8.003611111,8.01472973,8.079054054,8.215540541,8.452094595,8.779797297,9.185945946,9.655,10.17648649,10.72148649,11.32583333,11.94222973,12.58358108,13.24520833,13.91851351,14.57709459,15.2675,15.93844595,16.60925676,17.26087838,17.90472222,18.52083333,19.11966216,19.69932432,20.23222222,20.76371622,21.2572973,21.71972222,22.15236486,22.56222973,22.95083333,23.30797297,23.63083333,23.96236111,24.23547297,24.48888889,24.75416667,24.95909722,25.15527778,25.359375,25.54398649,25.67,25.77388889,25.87972222,25.9725,25.96402778,25.95472222,25.90916667,25.82722222,25.74777778,25.64333333,25.50013889,25.32805556,25.16375,24.95722222,24.70375,24.4135,24.12791667,23.76458333,23.38421429,22.95347222,22.51833333,22.07520833,21.63215278,21.21342857,20.86319444,20.5705,20.35492857,20.205,20.10535714,20.05185714,20.03055556,20.02541667,20.003,19.96666667,19.88992857,19.78722222,19.593,19.28291667,18.8635,18.23364286,17.39027778,16.24214286,14.79214286,13.117,11.09857143,9.009285714,7.1665,5.704428571,4.722214286,4.173785714,3.866693548,2.99212963,2.669259259,2.5025,2.414166667,2.367115385,2.335648148,2.329074074,2.319814815,2.349722222,2.369814815,2.414814815,2.46375,2.527307692,2.599615385,2.683796296,2.776730769,2.8825,3.005,3.137019231,3.285961538,3.429807692,3.583653846,3.74,3.898461538,4.067211538,4.27,4.470384615,4.686730769,4.9035,5.113653846,5.328846154,5.537980769,5.7678,5.9992,6.2516,6.5226,6.787307692,7.0695,7.3363,7.6317,7.9598,8.261634615,8.5719,8.8986,9.1462,9.3603,9.5652,9.7503,9.940416667,10.1425,10.3136,10.5046,10.6596,10.747,10.8468,10.84,10.89229167,10.9683,11.01458333,11.0302,11.07979167,11.0775,11.1005,11.10625,11.08833333,11.04416667,10.970625,10.8828125,10.74552083,10.54195652,10.3725,10.135,9.89923913,9.70625,9.4815625,9.256875,9.11423913,8.948020833,8.732065217,8.546521739,8.357934783,8.142934783,7.97673913,7.792608696,7.536304348,7.276413043,7.078043478,6.795434783,6.638478261,6.492826087,6.392826087,6.35673913,6.374090909,6.434090909,6.383068182,6.0575,5.670217391,5.334456522,5.0825,4.897045455,4.691304348,4.551818182,4.4425,4.336363636,4.23875,4.218333333,4.169090909,4.152727273,3.984318182,3.914772727,3.766428571,3.605,3.491704545,3.403181818,3.345,3.2475,3.180681818,3.118809524,3.077159091,3.183571429
41.16878947,41.34726316,41.58231579,41.78921053,41.91947368,42.03542105,42.14105263,42.18405263,42.25615789,42.29615789,42.33036842,42.35936842,42.37926316,42.374,42.37526316,42.37515789,42.33447368,42.31178378,42.23642105,42.22821053,42.17515789,42.106,42.04421053,41.93431579,41.85910526,41.69726316,41.44726316,41.08184211,40.56968421,39.99259459,39.49905263,39.10336842,38.94831579,38.83583784,38.75757895,38.68973684,38.62454054,38.55526316,38.49210526,38.50643243,38.51947368,38.54140541,38.58463158,38.62956757,38.678,38.75531579,38.80610526,38.83481081,38.86973684,38.90978378,38.94252632,38.95686486,38.95064865,38.92873684,38.88084211,38.82163158,38.69772973,38.59273684,38.45821622,38.28663158,38.05454054,37.77935135,37.45389474,37.08518919,36.65368421,36.12864865,35.55342105,34.94621622,34.3792973,33.81863158,33.28281081,32.76252632,32.23221622,31.52881081,30.60942105,29.35875676,27.56054054,25.19189189,22.49594595,19.7227027,17.18664865,15.10935135,13.60881081,12.55340541,11.81383784,11.35113514,11.04897297,10.87335135,10.78243243,10.75416216,10.77113514,10.84194595,10.98756757,11.24567568,11.61972973,12.09216667,12.63459459,13.21627027,13.82178378,14.47733333,15.1347027,15.80966667,16.49102703,17.15832432,17.81610811,18.47237838,19.118,19.72756757,20.31755556,20.88097297,21.44254054,21.96633333,22.46116667,22.90610811,23.363,23.78427027,24.17566667,24.53805405,24.88066667,25.21227027,25.52033333,25.78594444,26.08308108,26.30688889,26.535,26.77702703,26.93783333,27.104,27.28783333,27.43772222,27.54816667,27.61833333,27.69055556,27.756,27.73333333,27.68561111,27.6085,27.49377778,27.36502857,27.22488889,27.07433333,26.91955556,26.76628571,26.59466667,26.40685714,26.16033333,25.92891429,25.64733333,25.33822222,24.98697143,24.62755556,24.31554286,23.94331429,23.58497143,23.292,23.01914286,22.88066667,22.75994286,22.68982857,22.6635,22.638,22.642,22.65766667,22.64674286,22.57337143,22.48394286,22.33,22.08531429,21.7024,21.14445714,20.38068571,19.27152941,17.85228571,16.03285714,13.81097143,11.35497143,9.0044,6.9848,5.5316,4.643085714,4.004875,3.241230769,2.799925926,2.560461538,2.436666667,2.38,2.335777778,2.324444444,2.331333333,2.363846154,2.408444444,2.478666667,2.558461538,2.667384615,2.790740741,2.928461538,3.094769231,3.26762963,3.477230769,3.709230769,3.949,4.196692308,4.455076923,4.720923077,4.983230769,5.266,5.555538462,5.85568,6.136,6.42624,6.699384615,6.985538462,7.254,7.557230769,7.86672,8.15736,8.497692308,8.81368,9.12648,9.44144,9.76296,10.13208,10.4444,10.7736,11.106,11.38224,11.604,11.8108,12.00466667,12.18928,12.39744,12.5565,12.73944,12.86,12.95824,13.068,13.10366667,13.174,13.28625,13.38512,13.411,13.5055,13.52104,13.5455,13.55666667,13.51675,13.4595,13.353,13.206,13.01616667,12.71775,12.49313043,12.155,11.86725,11.592,11.33725,11.0735,10.88925,10.7185,10.4586087,10.25356522,10.01391304,9.796347826,9.631217391,9.450434783,9.172,8.879826087,8.641826087,8.330869565,8.155363636,7.985826087,7.866173913,7.802545455,7.782695652,7.704434783,7.569217391,7.176173913,6.762,6.404909091,6.122,5.866956522,5.655,5.426181818,5.282,5.121636364,5.032181818,4.879636364,4.802363636,4.675909091,4.482545455,4.319181818,4.113090909,3.947818182,3.792380952,3.601090909,3.552545455,3.489545455,3.378190476,3.401818182,3.252380952,3.369142857
47.67214912,47.85008772,48.06802632,48.21421053,48.31179825,48.40298246,48.45964912,48.48837719,48.54078947,48.57149123,48.58719298,48.59311404,48.59070175,48.56833333,48.55276316,48.52258772,48.45092105,48.4081982,48.31131579,48.29149123,48.22412281,48.13517544,48.04701754,47.91122807,47.80491228,47.61618421,47.32780702,46.88135965,46.29903509,45.67454955,45.18026316,44.81140351,44.66587719,44.56959459,44.50092105,44.43850877,44.37153153,44.30666667,44.25096491,44.26369369,44.26184211,44.28283784,44.31324561,44.32635135,44.35333333,44.41004386,44.43596491,44.45243243,44.48219298,44.50626126,44.52973684,44.53094595,44.51261261,44.47087719,44.41517544,44.34609649,44.1881982,44.05491228,43.89477477,43.69350877,43.41972973,43.11279279,42.75350877,42.34279279,41.86175439,41.27801802,40.65868421,40.01252252,39.41216216,38.82789474,38.27918919,37.73298246,37.14738739,36.35423423,35.30429825,33.87153153,31.77202703,29.04635135,26.02585586,22.97788288,20.24441441,18.04648649,16.4822973,15.39333333,14.63279279,14.15369369,13.84040541,13.65463964,13.55914414,13.53572072,13.56220721,13.65454955,13.84157658,14.16761261,14.62617117,15.19111111,15.83135135,16.51306306,17.2190991,17.98611111,18.75518018,19.53546296,20.32743243,21.09675676,21.85040541,22.62063063,23.36185185,24.07369369,24.75990741,25.41716216,26.06486486,26.66814815,27.24,27.75603604,28.27555556,28.75788288,29.19763889,29.60126126,29.97222222,30.33072072,30.65527778,30.92981481,31.23918919,31.47685185,31.71453704,31.96,32.11300926,32.2775,32.46902778,32.63032407,32.7425,32.82175926,32.91550926,32.99402778,32.98592593,32.95972222,32.90291667,32.83365741,32.76290476,32.66722222,32.54222222,32.39518519,32.22990476,32.04134259,31.83047619,31.55055556,31.27514286,30.94837963,30.59037037,30.1792381,29.77171296,29.41347619,28.9717619,28.56871429,28.24416667,27.93942857,27.75777778,27.5952381,27.49414286,27.44069444,27.39166667,27.375,27.36222222,27.33747619,27.23338095,27.10390476,26.90095238,26.57371429,26.095,25.41895238,24.48885714,23.1627451,21.49309524,19.36880952,16.70142857,13.79342857,11.07528571,8.724047619,7.010142857,5.970047619,5.3771875,4.412435897,3.799259259,3.458333333,3.268950617,3.176666667,3.112592593,3.108888889,3.117222222,3.172948718,3.238518519,3.334444444,3.457692308,3.610576923,3.787407407,3.99025641,4.208205128,4.454567901,4.736346154,5.032051282,5.346666667,5.666666667,5.996153846,6.344358974,6.692692308,7.055769231,7.440128205,7.8328,8.215,8.613533333,8.988397436,9.368589744,9.743653846,10.1474359,10.57026667,10.96513333,11.41166667,11.83653333,12.25986667,12.6922,13.1088,13.58546667,13.989,14.40633333,14.83083333,15.18926667,15.468,15.73246667,15.98333333,16.224,16.48013333,16.66291667,16.87973333,17.024,17.12246667,17.22553333,17.25194444,17.31666667,17.42236111,17.51326667,17.52111111,17.59791667,17.58133333,17.59791667,17.59777778,17.53868056,17.46354167,17.355,17.20388889,17.02347222,16.74555556,16.52775362,16.20958333,15.92541667,15.67416667,15.409375,15.10041667,14.8825,14.66659722,14.34028986,14.0692029,13.77137681,13.46376812,13.23565217,12.96927536,12.57152174,12.16007246,11.84144928,11.43565217,11.18121212,10.94014493,10.76507246,10.6219697,10.52188406,10.38927536,10.18695652,9.704710145,9.190606061,8.725378788,8.363333333,8.073405797,7.798333333,7.544393939,7.303333333,7.111666667,6.94,6.750757576,6.622727273,6.453712121,6.211439394,6.004545455,5.710606061,5.522121212,5.338492063,5.073560606,4.973181818,4.85969697,4.710793651,4.676818182,4.53547619,4.60484127
