database_name,dataset,AOM-compact-cv3-numpy,AOM-compact-cv5-numpy,AOM-compact-cv5-oneSE-numpy,AOM-compact-oneSEcv3-numpy,AOM-compact-press-numpy,AOM-compact-repcv3-numpy,AOM-compact-repcv3-oneSE-numpy,AOM-compact-simpls-covariance-numpy,AOM-default-nipals-adjoint-numpy,AOM-default-oneSEcv3-numpy,AOM-default-simpls-covariance-numpy,AOM-explorer-simpls-numpy,AOM-family-pruned-cv3-numpy,AOM-family-pruned-numpy,AOM-response-dedup-cv3-numpy,AOM-response-dedup-numpy,ASLS-AOM-compact-cv3-numpy,ASLS-AOM-compact-cv5-numpy,ASLS-AOM-compact-repcv3-numpy,ASLS-AOM-compact-repcv3-oneSE-numpy,ASLS-AOM-family-pruned-cv3-numpy,ASLS-AOM-response-dedup-cv3-numpy,ActiveSuperblock-deep3-numpy,ActiveSuperblock-simpls-numpy,LocalSNV-w101-AOM-compact,LocalSNV-w31-AOM-compact,LocalSNV-w51-AOM-compact,MSC-AOM-compact-numpy,MSC-AOM-default-numpy,MSC-OSC-AOM-default-numpy,OSC-AOM-compact-numpy,OSC-AOM-default-numpy,PLS-standard-numpy,POP-K3-numpy,POP-K5-numpy,POP-K8-cv3-numpy,POP-K8-cv3-oneSE-numpy,POP-K8-numpy,POP-nipals-adjoint-numpy,POP-simpls-covariance-numpy,SNV-AOM-compact-cv3-numpy,SNV-AOM-compact-numpy,SNV-AOM-compact-oneSE-numpy,SNV-AOM-compact-repcv3-numpy,SNV-AOM-default-numpy,SNV-ASLS-AOM-compact-repcv3-numpy,SNV-OSC-AOM-default-numpy,Superblock-raw-simpls-numpy,nirs4all-AOM-PLS-default,nirs4all-POP-PLS-default,pipeline-emsc1-asls-osc1-compact,pipeline-emsc1-asls-osc1-default,pipeline-emsc1-asls-osc2-compact,pipeline-emsc1-asls-osc2-default,pipeline-emsc1-asls-osc3-compact,pipeline-emsc1-asls-osc3-default,pipeline-emsc1-asls-x-compact,pipeline-emsc1-asls-x-default,pipeline-emsc1-x-osc1-compact,pipeline-emsc1-x-osc1-default,pipeline-emsc1-x-osc2-compact,pipeline-emsc1-x-osc2-default,pipeline-emsc1-x-osc3-compact,pipeline-emsc1-x-osc3-default,pipeline-emsc1-x-x-compact,pipeline-emsc1-x-x-default,pipeline-emsc2-asls-osc1-compact,pipeline-emsc2-asls-osc1-default,pipeline-emsc2-asls-osc2-compact,pipeline-emsc2-asls-osc2-default,pipeline-emsc2-asls-osc3-compact,pipeline-emsc2-asls-osc3-default,pipeline-emsc2-asls-x-compact,pipeline-emsc2-asls-x-default,pipeline-emsc2-x-osc1-compact,pipeline-emsc2-x-osc1-default,pipeline-emsc2-x-osc2-compact,pipeline-emsc2-x-osc2-default,pipeline-emsc2-x-osc3-compact,pipeline-emsc2-x-osc3-default,pipeline-emsc2-x-x-compact,pipeline-emsc2-x-x-default,pipeline-msc-asls-osc1-compact,pipeline-msc-asls-osc1-default,pipeline-msc-asls-osc2-compact,pipeline-msc-asls-osc2-default,pipeline-msc-asls-osc3-compact,pipeline-msc-asls-osc3-default,pipeline-msc-asls-x-compact,pipeline-msc-asls-x-default,pipeline-msc-x-osc1-compact,pipeline-msc-x-osc1-default,pipeline-msc-x-osc2-compact,pipeline-msc-x-osc2-default,pipeline-msc-x-osc3-compact,pipeline-msc-x-osc3-default,pipeline-msc-x-x-compact,pipeline-msc-x-x-default,pipeline-snv-asls-osc1-compact,pipeline-snv-asls-osc1-default,pipeline-snv-asls-osc2-compact,pipeline-snv-asls-osc2-default,pipeline-snv-asls-osc3-compact,pipeline-snv-asls-osc3-default,pipeline-snv-asls-x-compact,pipeline-snv-asls-x-default,pipeline-snv-x-osc1-compact,pipeline-snv-x-osc1-default,pipeline-snv-x-osc2-compact,pipeline-snv-x-osc2-default,pipeline-snv-x-osc3-compact,pipeline-snv-x-osc3-default,pipeline-snv-x-x-compact,pipeline-snv-x-x-default,pipeline-x-asls-osc1-compact,pipeline-x-asls-osc1-default,pipeline-x-asls-osc2-compact,pipeline-x-asls-osc2-default,pipeline-x-asls-osc3-compact,pipeline-x-asls-osc3-default,pipeline-x-asls-x-compact,pipeline-x-asls-x-default,pipeline-x-x-osc1-compact,pipeline-x-x-osc1-default,pipeline-x-x-osc2-compact,pipeline-x-x-osc2-default,pipeline-x-x-osc3-compact,pipeline-x-x-osc3-default
ALPINE,ALPINE_P_291_KS,0.0607920585189263,0.0607920585189263,0.0658404531778488,0.0634396565895516,0.0839119924335342,0.0598845144888807,0.0668578058837774,0.0602139375074288,0.0673304408295094,0.0572883873409942,0.0635305930443534,0.0602139375074288,0.0607920585189263,0.0648055203660351,0.066215313155246,0.0602139375074292,0.0605969545378215,0.0605969545378215,0.0574696067456109,0.0629566271446675,0.0605969545378215,0.0618602034922345,0.0699604492283229,0.0697520768619498,0.0570306404056327,0.0678314750918347,0.0618425087208686,0.0646651738960257,0.0765308426858228,0.0981593024139442,0.1023686841346503,0.1036270525112136,0.0596920317134281,0.1006903060232505,0.1006903060232505,0.1006903060232505,0.1006903060232505,0.1006903060232505,0.1006903060232505,0.1006903060232505,0.0621032884827663,0.0577981858379845,0.0684023467077881,0.066788136320537,0.0619421175325907,0.0643323875803086,0.0980586482977302,0.0595661399307662,0.0673304408295096,0.4152884258009491,0.1058637618971642,0.1058221576656705,0.1058645765233802,0.1058761085991616,0.1059801324447037,0.1059668144511596,0.1061452761102883,0.1051804127605777,0.1059657078939012,0.1057946902426304,0.1058028875412699,0.1055996480374709,0.1058576125447195,0.1058576125447195,0.1051482580764856,0.1028167035250114,0.1033411425887434,0.1033416997939361,0.1032706382580772,0.1041827539866308,0.1032534992290554,0.1040269500167164,0.1034293102849299,0.1041177058877333,0.1059674829602085,0.1059674829602085,0.1059650775691923,0.1056278896920536,0.1060227579392715,0.1060227579392715,0.1061208759833986,0.1061208759833986,0.1003900056800647,0.0996027623275169,0.1002457226069112,0.1012051497765477,0.1002479120052608,0.101266712744331,0.0660214500043177,0.0636574928422162,0.0982974906764581,0.0982974906764581,0.0981593024139442,0.0981593024139442,0.0981529778580908,0.0981529778580908,0.0646651738960257,0.0765308426858228,0.1005825430739579,0.1018313356042139,0.1004744042207549,0.1017128414225141,0.1004813736425846,0.0986298297869067,0.0617584430569809,0.0672337389539979,0.0981433606653454,0.0981433606653454,0.0980586482977302,0.0980586482977302,0.0980597424087325,0.0980597424087325,0.0577981858379845,0.0619421175325907,0.1006008474750145,0.1006008474750145,0.1006023338376744,0.1006023338376744,0.100604217101014,0.100604217101014,0.0574696067456109,0.0659225338285242,0.1025177788160946,0.1025177788160946,0.1023686841346503,0.1036270525112136,0.0982433537523959,0.0994557514698042
AMYLOSE,Rice_Amylose_313_YbasedSplit,2.47113102140502,2.47113102140502,2.4544527699838063,2.809563841407789,2.270758273806495,2.270758273806495,2.809563841407789,2.2707582738064915,1.8872509364111651,2.2745023248893603,1.9241251253080027,1.8704609146383744,2.0953732364004165,2.0953732364004165,1.9234312151181447,1.9234312151181447,2.3610909962213937,2.277125418775644,2.3189440231362566,2.3574532068316767,1.9718218714283595,1.9283937462778096,3.3856203704177856,3.390193212610795,4.940243776117256,4.794251729934542,4.928272238055908,2.4079701964945013,1.9030410637287236,5.368848708464804,5.324008711949575,5.326514806647345,3.2446926368545626,5.323802664312729,5.323802664312729,5.323802664312729,5.323802664312729,5.323802664312729,5.323802664312729,5.323802664312729,2.216328812921124,2.3935220866245777,2.6547391039115467,2.216328812921124,1.8949182643767408,2.29340793733984,5.35140219072602,3.3590334949040304,1.887250936411186,39.15419906350674,5.275019308937619,5.275623002902449,5.289841834171633,5.282938468902152,5.275584823843731,5.28041113047335,5.3363871423254166,7.30373363124617,5.25082879336269,5.248595113192557,5.251173293752693,5.248757714615113,5.250374200769029,5.24740982838002,5.354651354709154,5.266646689532532,5.210547380084813,5.2213939313630044,5.220454403071522,5.218215169536541,5.226096994514529,5.228715345587043,5.997357528765318,5.818810297769134,5.256100947749421,5.25365693544236,5.254999643718183,5.2534404237442205,5.255318676703188,5.254385856964597,5.749997953729019,6.029526004586852,5.339425864020404,5.322160461168238,5.339215279150944,5.321249079189404,5.338752871154827,5.310430085177892,2.3144186168286467,2.0851054009033225,5.3315623907871545,5.337088657774952,5.369459982248337,5.368848708464804,5.3826864760009805,5.384792125155653,2.4079701964945013,1.9030410637287236,5.3401408733259,5.323327286934755,5.339985149834916,5.322585720174835,5.339657739371414,5.311770195934438,2.29340793733984,2.075752694736062,5.377751556340925,5.3499191205513,5.365613153182682,5.35140219072602,5.379557035103058,5.368630286546374,2.3935220866245777,1.8949182643767408,5.35269847752568,5.351457445056246,5.355692084383577,5.353777800637297,5.350758154985952,5.314775693200466,2.3189440231362566,1.9192909039143,5.33230741859553,5.326306874152351,5.324008711949575,5.326514806647345,5.3240632042702645,5.3161740356227485
BEEFMARBLING,Beef_Marbling_RandomSplit,75.09710974076586,75.05514029849627,73.96021571116073,73.96021571116073,72.66856846205425,73.36257755362814,73.14403816124707,72.7827852830316,72.78278528303186,73.49402485560549,72.7827852830316,75.29365396141877,75.06023412435084,72.78278528303186,75.09710974076586,72.78278528303186,74.85313800725497,72.9760560708558,72.9760560708558,73.19344698768778,73.94447486436268,74.85313800725497,74.20764903031309,74.23353912841772,70.84151548324724,76.44135897544295,73.27180441354736,72.5824907335787,72.57166076176922,96.68777796931757,98.5547886481138,98.56159295568284,74.82383662125208,98.65721397961586,98.65721397961586,98.65721397961586,98.65721397961586,98.65721397961586,98.65721397961586,98.65721397961585,72.52391902129952,73.0619240225221,70.66735961681665,72.67222291683588,72.55301687265806,72.89567561347438,96.74884112627797,74.74748646920496,72.78278528303186,564.469562977438,99.5097067815984,99.51187593334494,99.5107473122189,99.50353792773954,99.52999812923304,99.51612994065177,103.78442261691048,103.78442261691048,99.57794565322746,99.57794565322746,99.5794039459864,99.54102959107615,99.57941888650356,99.57693727492226,157.32427304046743,131.59966729964324,99.49292707574756,99.47893727890929,99.40347076500252,99.38944388342848,99.44576648892414,99.43566567442105,103.79616980636574,100.26426781236742,99.43477930807256,99.39851790667151,99.4133524390782,99.41244752922854,99.43029305355957,99.43020921956186,102.99687280467184,102.99687280467184,98.93627154695724,98.96698705361707,98.24982720371534,98.45835179582184,98.96094762966264,98.95813725369564,72.71437590575553,71.86688806177632,97.93544360168411,96.7671557605834,96.684280569095,96.68777796931757,96.53693980974572,96.56157670648722,72.5824907335787,72.57166076176922,98.57946072418504,98.67856999397662,97.8969565074127,98.1170368106455,98.74169528186808,98.738633201684,72.89417863208556,71.64975708370328,97.8611133280726,96.77058774798805,96.52738332698064,96.74884112627797,96.6248446619888,96.49230966392248,73.0619240225221,72.55301687265806,94.10971777815504,94.1103279112496,93.85978973256888,93.46469007304076,94.06113821282833,93.72749131227528,72.30100168009834,74.05454469152055,98.57744918459106,98.51931439787047,98.5547886481138,98.56159295568284,98.55360676803112,98.55425840345778
BEER,Beer_OriginalExtract_60_KS,0.3288731834575107,0.3288731834575107,0.3288731834575107,0.3288731834575107,0.425090878001106,0.2595054322300939,0.3288731834575107,0.4250908780011068,0.2041832245698669,0.1540369600093148,0.2195069472589186,0.2440712473468487,0.1978674289958093,0.1657144157253136,0.1540369600093148,0.2196471405127135,0.2368898225553062,0.2368898225553062,0.2368898225553062,0.2368898225553062,0.2492897319910345,0.2121763486340599,0.3625219545394263,0.328018488419048,1.0578093818316263,1.8601958873983595,0.5872346866180144,0.201453390297095,0.2281897972475322,0.2571913649090565,0.6466576697497451,0.4865003319957321,0.5783836208398858,1.8698814156659316,1.6400382291186786,1.8979803703788427,1.8979803703788427,1.6239359891465075,1.624438857764653,1.8020488175084584,0.1426024118090958,0.2013685129868688,0.1426024118090958,0.1426024118090958,0.2281854414854232,0.2501525477128738,0.2571886392729809,0.4840009818237816,0.204183224569868,0.9814285852656066,1.6272870034937863,1.6149599992090569,1.6276052790508928,1.6276531674618462,1.6245263158069614,1.6200220281399005,2.153781294295744,1.7477633729551918,1.6783559634739624,1.6888268539011786,1.6742513073862229,1.6837324391860566,1.6703665895104995,1.677615796070558,1.6941794673286046,1.7143569411682549,1.6243116798045685,1.6200400207283174,1.6422228436918849,1.6070493725940784,1.64215599195385,1.6080623737331696,1.6022101589826008,1.6008148347813569,1.5988616084225502,1.5991350092893208,1.598840622746035,1.59910534034708,1.6003182574635302,1.599086466885701,1.6023469437951416,1.600687666888286,0.5369306055413839,0.3568847124101022,0.5413810535415026,0.3484682268119437,0.5489530090985727,0.3847662007135767,0.2648110197024154,0.2646952374390967,0.2516342243186002,0.2570721168069594,0.248606348665278,0.2571913649090565,0.2481103272937216,0.2579010477590494,0.201453390297095,0.2281897972475322,0.5366129229425035,0.3570149167247062,0.5410232473089602,0.3487276739631361,0.5485900848886652,0.3849615933274015,0.2646807690974219,0.2646355929287901,0.2515827239021362,0.2570683911486707,0.2485522963320132,0.2571886392729809,0.2480624306329765,0.2579046507679123,0.2013685129868688,0.2281854414854232,0.3434627693094726,0.2893475625600049,0.3442282311106681,0.25107705486581,0.3459464450191722,0.2760206866979855,0.4785635891732226,0.2063264731803492,0.6855232528043154,0.5527394861912488,0.6466576697497451,0.4865003319957321,0.6550816153138851,0.4984195101916435
BEER,Beer_OriginalExtract_60_YbaseSplit,0.2985422875159903,0.2793228826287099,0.2568723658502096,0.2568723658502096,0.7703265593537222,0.2994960089854169,0.2568723658502096,0.9473565532735878,0.2107115974147592,0.2074260424079046,0.2327825566430517,0.51886004751519,0.2914470289349864,0.9473565532735876,0.2263242761622163,0.2336291651514668,0.235240602571549,0.2537831878709551,0.235240602571549,0.2537831878709551,0.2954817635164128,0.2398242485840017,0.4019776930773105,0.3857593277721637,1.4116421602784357,2.1812922256387752,0.6951028849063728,0.266800677100485,0.2326972760278008,0.3022793835020914,0.9263079540752468,0.725418620259406,0.9263079540752552,0.8430589764912714,0.805714090888377,1.9095572026376817,1.9125834707397644,0.8135900901653486,0.8123305680952287,0.8131788125619965,0.2629621586190809,0.2666225967079605,0.2539879708326219,0.2629621586190809,0.2325915818800397,0.2582650895699052,0.302085188394144,0.4821967666034137,0.2107115974147587,0.9859489486942662,2.454479902569008,2.4530841864899315,2.4544803026406607,2.4530841158049617,2.449637722186518,2.45006195421864,2.4522423166170517,2.4494288783131006,2.454914150146525,2.455802364533493,2.45459062924133,2.454593430093503,2.450828299062205,2.446875498472272,2.92457255216656,2.8269178671208746,2.4409399886073,2.4409524711542367,2.4409466865708938,2.440950617029478,2.4409482414052466,2.4409487046817104,2.4409689929637666,2.4407471518211685,2.4409698097376,2.440872108679818,2.44090178870816,2.4408732545317244,2.440889424229461,2.440860317492671,2.4408917216477266,2.440870888075982,0.7472693970298111,0.6060807094269768,0.7481706174395252,0.6066394028460228,0.7466261776193742,0.7210807010441721,0.4292716395983362,0.2646101057635129,0.3151602475335892,0.295368094496086,0.3121473130772869,0.3022793835020914,0.3091259701206312,0.3311988846014684,0.266800677100485,0.2326972760278008,0.7468309681203096,0.6057139496459436,0.7477321911983166,0.6062830536156057,0.7462271103344279,0.6057171547527315,0.4288762314093933,0.264766552604145,0.3150321281176468,0.2952904242086773,0.3119779762888823,0.302085188394144,0.3089562879287751,0.3314466069919951,0.2666225967079605,0.2325915818800397,0.5260089758133936,0.4831017896767997,0.5211958246203859,0.4797964933794568,0.5144762658527253,0.4706717701223201,0.4963536267682693,0.4286412663480342,0.9263079540752476,0.9263079540752476,0.9263079540752468,0.725418620259406,0.9263079540752476,0.7042352175952489
BERRY,brix_groupSampleID_stratDateVar_balRows,4.281733838228362,4.281733838228362,4.354965767535166,4.447582867197306,4.143343944869722,4.354965767535166,4.5073555900637325,4.360670385671456,4.1629026505997855,4.009898976314049,3.9660707429302704,4.340543517256901,4.281733838228362,3.9660707429302735,4.281733838228362,3.9660707429302735,4.278086706491186,4.2133237741802345,4.278086706491186,4.39314166328816,4.025515635455454,4.025515635455454,4.129885622310394,4.130903753481008,3.801953362644862,3.699332549292051,3.710948934762508,5.055552310636436,4.381753306810958,5.352816057134013,5.382452216388611,5.383867377468955,4.427724806691203,5.4010323423955775,5.4010323423955775,5.4010323423955775,5.4010323423955775,5.4010323423955775,5.4010323423955775,5.4010323423955775,4.979854130395485,4.742529413222882,4.979854130395485,4.979854130395485,4.247042161738857,4.97098106768497,5.3552432463393735,4.41630233008364,4.162902650599791,16.282092464838794,5.057893211886266,5.04304484827554,5.054335145883381,5.054803558079331,5.065096092787531,5.089282061153185,12.775907720320928,12.049371273756924,5.167919825562775,5.226298835073072,5.1843323897506695,5.18989174938799,5.191078376681899,5.190210548185165,5.160010447335908,5.160010447335908,6.918242769429229,6.079669985115356,6.437980016224918,6.499806533033047,6.23689083498391,6.370915794513956,20.75632990100191,5.434375536998105,6.04694529374921,6.183564697947667,6.07897030448973,5.921289573829567,6.074372829984868,5.906787168688032,9.267129760045387,9.267129760045387,5.313671029598541,5.3135438515197535,5.313851004520273,5.313677674400037,5.313873040108908,5.313267115353996,4.796602424880428,4.460336646806945,5.352747105907854,5.347935786158623,5.352819358203508,5.352816057134013,5.3528015001435385,5.352783330756978,5.055552310636436,4.381753306810958,5.299050705649638,5.299573787823932,5.29858097936368,5.297514523606435,5.299242996624475,5.299567673404708,4.778490582433655,4.331292829727534,5.355216120876512,5.355246997493977,5.35524003229594,5.3552432463393735,5.3551796322842735,5.355215267986295,4.742529413222882,4.247042161738857,5.325972088336124,5.316913387547037,5.324266397949256,5.316678363782779,5.331223563835372,5.33363715465038,4.2133237741802345,4.055846836269848,5.382359502960675,5.378691151222331,5.382452216388611,5.383867377468955,5.380715596774973,5.384786004618447
BERRY,ph_groupSampleID_stratDateVar_balRows,0.3448134019201604,0.3404823093244757,0.3493103596379021,0.3492339309007606,0.3723524579308986,0.3448134019201604,0.3492339309007606,0.3448134019201602,0.3513128408267453,0.3372344990758822,0.3513128408267448,0.3448134019201602,0.3484080020363488,0.3513128408267453,0.3484080020363488,0.3513128408267453,0.3384585105112708,0.3384585105112708,0.3402074117242379,0.34652398962573,0.3260240211194692,0.3260240211194692,0.3419406286813891,0.3466695564202358,0.3211140393069012,0.2989489351563514,0.3010481106191599,0.7419331381849696,0.3922283368889769,0.4494186972018892,0.4521659000253047,0.4521659000253047,0.340482309324476,0.4608383449456909,0.4608383449456909,0.4608383449456909,0.4608383449456909,0.4608383449456909,0.4608383449456909,0.4608383449456909,0.3875751487602099,0.3876772684728021,0.4041195034919488,0.3875751487602099,0.3439198901474636,0.3799760720366641,0.4487563549829328,0.3410361777510142,0.351312840826744,1.3012779992271355,0.4186609015612031,0.4167903765314291,0.4186566625939992,0.4166213594555524,0.4188637306368867,0.4188519571229023,0.4890598392457989,0.4890598392457989,0.4287497650431349,0.4289072785825889,0.4226881158637858,0.4226881158637858,0.4226881158637858,0.4226881158637858,0.3829459727356415,0.3829459727356415,3.091639492882517,2.835139829189905,3.0916394928825177,2.8256454167978435,3.082049770684805,2.7829487250431963,3.6736084390877104,0.4147455350151742,2.6141909732914765,2.6141909732914765,0.6024960684844497,1.819167887448392,0.6029262035941659,0.6029262035941659,2.443678277980477,2.443678277980477,0.5034553181550093,0.5033110933664595,0.5035209355408296,0.5034329936770031,0.5036235997594863,0.5035973906679754,0.7244480691628693,0.5918174662367669,0.4494173877517946,0.4494036673993353,0.4494295371369196,0.4494186972018892,0.4494308388953627,0.4494191389538778,0.7419331381849696,0.3922283368889769,0.4454731209632459,0.4454503351764091,0.4454712132602926,0.445051182144113,0.445472996565193,0.4454408045490668,0.3818761570016043,0.3460922118922012,0.4487604088214855,0.4487604088214855,0.4487638486661772,0.4487563549829328,0.4487708647943579,0.4487624063937637,0.3876772684728021,0.3439198901474636,0.4424644346728033,0.4423121595573721,0.4424661456909298,0.4424627046450479,0.4418840210671231,0.4418810111511717,0.3384585105112708,0.3260240211194692,0.4521189869979887,0.4521189869979887,0.4521659000253047,0.4521659000253047,0.452295440602498,0.452295440602498
BERRY,ta_groupSampleID_stratDateVar_balRows,2.171883626120552,2.175504096022409,2.2475791589727074,2.233720389050846,1.935498408067392,1.935498408067392,2.233720389050846,2.252388959089023,1.87331437311998,1.9493399721513516,1.870756941109064,2.19608820546902,1.870756941109065,1.870756941109065,1.870756941109065,1.870756941109065,1.9361678347622104,1.9361678347622104,1.9361678347622104,2.012170102155733,1.8360048550874792,1.8360048550874792,2.3110585647420394,2.289569021809688,1.873009001224714,1.843743899622612,1.8367756580452612,2.7321205920219227,1.97814642020762,2.404471120462171,2.4279130409434027,2.4279130409434027,2.1787115855745847,2.4654537674766908,2.4654537674766908,2.4654537674766908,2.4654537674766908,2.4654537674766908,2.4654537674766908,2.465453767476691,2.4503506553443257,2.4503506553443257,2.4190758577910247,2.4503506553443257,1.915694170238284,2.599051170842058,2.405525845991971,2.2022035178848487,1.8733143731199768,8.063477549854117,2.2733233812565383,2.273259741770828,2.2734587510151534,2.2734587510151534,2.274071442272053,2.274071442272053,2.479464981061943,2.165232855016373,2.307113777671568,2.3072634065969595,2.30648988794568,2.3065584185843337,2.3069580145546094,2.3068762249122714,2.105421088433956,2.105421088433956,15.4133935127508,13.698564024589382,8.786355014487825,13.63177254349845,8.852572916872811,13.48381634385906,33.45785979193646,30.16124038200467,11.616063475486744,11.64808650546902,11.535367256998004,7.671987044066631,11.524701493908294,7.657738805666879,2.808828421515134,2.808828421515134,2.5290553676560235,2.5135559023554017,2.4989213893207154,2.4989213893207154,2.4985936473611234,2.4985936473611234,3.3910614994770456,3.2324586823568446,2.4044069390948613,2.4043369233396,2.4046262992903524,2.404471120462171,2.404496068866665,2.40446023451322,2.7321205920219227,1.97814642020762,2.407992047966193,2.407992047966193,2.4079920479661934,2.4079920479661934,2.407884138066968,2.407206305127607,2.51698499256024,1.9268278812367703,2.405520353746766,2.4054917463237664,2.4055454049445646,2.405525845991971,2.4054929741974878,2.405456806056477,2.4503506553443257,1.915694170238284,2.3991851034899514,2.3992754289125418,2.399428734701293,2.399428734701293,2.399068527242121,2.399068527242121,2.226440146766119,1.8360048550874792,2.427591964445005,2.434205554803651,2.4279130409434027,2.4279130409434027,2.427856733465144,2.427856733465144
BISCUIT,Biscuit_Fat_40_RandomSplit,0.442133781365517,0.442133781365517,0.4596123125049884,0.2740572196551213,0.3974846307069198,0.442133781365517,0.5490983541729934,0.5490983541729932,0.5490983541729934,0.5610969694339878,0.5666989713446977,0.3635341949763641,0.460926087446691,0.5490983541729934,0.460926087446691,0.5490983541729934,0.7387976677573145,0.4371357596760806,0.508840795528155,0.625883883258245,0.526603328294374,0.738797667757316,0.2865470127149003,0.2868918603505263,0.3449341222770113,0.4686394560486044,0.3855258355344262,0.8781600977777931,0.9071242544527776,2.0246862652119217,2.660757607998374,2.3912013438825768,0.4196763112966035,2.0353364176039,2.0353364176039,1.601214568640274,1.601214568640274,2.0353364176039,2.0353364176039,2.035336417603899,0.4741820428500742,1.0704203982608196,0.6135187080108621,0.4541629258170855,1.0704203982608196,0.8939438759350521,2.0178668171385463,0.6878219946186349,0.5490983541729896,5.866538006161034,1.9876595505895864,1.9876595505895864,1.989565603416261,2.014366884317092,1.98968580633527,1.9799806988000288,2.7711863028837267,2.952485192153236,1.9743648119057624,1.977108649952119,1.9741521609624972,1.9792644904779788,1.9735086754850992,1.973969280265367,3.06655724214884,2.6147081819571656,2.001002276054041,2.001083369196921,1.993187260296737,1.994664768171068,2.0005590621681453,2.000580173843209,6.606098740509493,10.103127073614797,2.002737950419976,2.002737950419976,2.00369202521176,2.003455531263937,2.0039560754863697,2.0040550664163685,6.349249364017432,5.546228638159811,1.6366301044920963,1.5385447860352277,1.59433974464388,1.5103250741329104,1.9792144693821287,1.7605935347248294,0.6533170635489013,0.669365828795984,2.1384442291878445,2.00169667735781,2.159356384049512,2.0246862652119217,1.9742014186594912,1.931308121968036,0.8781600977777931,0.9071242544527776,1.6382496502913495,1.5336380503243314,1.5934625646802565,1.5116516540908855,1.9971132649183152,1.7617026193418048,0.7130112813807301,0.693315956158831,2.127294338123208,1.996461904238203,2.147190544332134,2.0178668171385463,1.9731809720653384,1.935974684307591,1.0704203982608196,1.0704203982608196,1.4376458033200854,1.455634241664695,1.4195050619810068,1.5222540135513336,1.301250871981213,1.5125884884897882,0.625883883258245,0.6356743854916337,3.8423497609978754,3.8536109747168794,2.660757607998374,2.3912013438825768,1.7179811418745092,1.7703878076939576
BISCUIT,Biscuit_Sucrose_40_RandomSplit,1.151771036149548,1.1649498367043007,1.0372030287768583,1.0372030287768583,2.5100989661080253,1.082073307380811,1.315009172775429,1.194712443409029,4.346934040836874,1.1763536680636812,4.750023851659158,1.858505953735388,1.290899831735566,1.180774063899094,1.290899831735566,3.675312420073168,0.881698340051363,0.881698340051363,0.881698340051363,0.7578697550591629,0.8804559718919874,1.1710332625316544,2.167604629191287,2.2216133123276607,1.0875048741591131,1.7684482229008387,3.1535261521582503,3.1611699829648874,3.0187916830058508,4.463196175378579,4.18274762736077,4.981250839515801,1.1544618734444572,4.250840070360239,4.250840070360239,3.7878100955845793,3.7878100955845793,4.250840070360239,1.93848616630794,4.838187065881693,1.0754217681430578,2.745411941736584,1.0702757833675995,1.0754217681430578,2.979368383428012,1.059007523767702,4.471263539889601,3.019082236732202,4.346934040836885,10.926274230727335,3.9202908336355,3.988577580996648,3.9204154277611294,3.98230727692532,3.935391599722118,3.99394143238926,3.941449332484801,3.930260102957076,3.902228470251055,3.9092846246543225,3.881160863454643,3.881160863454643,3.8763619735435983,3.8763619735435983,5.092457152865315,5.005452531962838,3.93659549513012,3.93664649792244,3.9317948915971694,3.9301010055204166,3.936490354466324,3.942496485866729,15.045645778822774,16.669720403209407,3.887249308561596,3.8872295017897542,3.8870195282419058,3.8866874415263952,3.8870291635017504,3.886740664717137,8.609230071726108,41.75136918590855,4.068950700291943,8.226944967898822,3.886446630385042,4.638962690601394,3.968308571102351,4.626120158183635,3.3395986364906487,3.355873763620105,5.341369445943347,7.195042150836481,4.468408693646009,4.463196175378579,4.468360339303281,4.463123862209468,3.1611699829648874,3.0187916830058508,4.054110572466663,8.196947657457208,3.890194629490488,4.587580947187395,3.9679802216151625,4.573413291861569,3.0418890316283047,3.3345154456055326,5.331609449158499,7.179187754020012,4.490599647680861,4.471263539889601,4.490371372555125,4.471119906766855,2.745411941736584,2.979368383428012,4.092691860101492,4.612830198411365,3.689505252423417,4.75877311190129,3.6898754372567466,4.394308458092871,2.5678474362925803,3.1385225523872498,3.751086050352189,5.3988172290426215,4.18274762736077,4.981250839515801,4.199142570568999,4.956366341662093
COLZA,C_woOutlier,2.578181266849206,2.578181266849206,1.8716191751324436,1.8716191751324436,2.063764116829838,2.578181266849206,1.8716191751324436,2.5781812668491764,2.327531223099358,1.9004811146260328,2.3171489513834542,1.9773736551105028,2.327531223099358,2.327531223099358,2.578181266849206,2.327531223099358,2.4366343292371058,2.4366343292371058,2.4366343292371058,1.6231701535049925,2.4009008765711077,2.4009008765711077,1.729377004203946,1.7021842642736176,1.3859639793603136,1.4979989693061848,1.699964974431609,3.437845521790449,3.145695886995095,2.286674733758931,2.941807313240229,2.9411198852239986,1.601807477386274,2.759043605194155,2.759043605194155,2.759043605194155,2.759043605194155,2.759043605194155,2.759043605194155,2.759043605194155,3.25057209363664,3.25057209363664,2.052381843780948,3.25057209363664,2.591496551598828,3.386693764328246,2.2881796239838117,1.5986750188877916,2.3275312230993297,9.058020447168396,2.800483747906977,2.800450547211917,2.800477532826975,2.801363333702121,2.800600431587674,2.80108274900209,4.764996092849152,8.839768739486434,2.801096449399103,2.801146619700879,2.802204094836277,2.8023298186854526,2.802133640429917,2.80232117133108,7.726826223000508,7.482815877754505,2.7968517305376865,2.7968517305376865,2.797004390526194,2.797004390526194,2.7974414279223154,2.798589772678498,2.798128160328743,2.883624383259742,2.79978431871136,2.7998359638292047,2.799515574994153,2.7995183083713338,2.799516722226357,2.7995187979469365,2.799804883789295,2.799815038238465,2.320773439694117,2.320773439694117,2.320773439694117,2.320773439694117,2.322364122031001,2.322364122031001,3.678846659896039,3.2322362207636224,2.305319370345708,2.305319370345708,2.2882596052957904,2.286674733758931,2.28779950860091,2.28779950860091,3.437845521790449,3.145695886995095,2.351096384120208,2.351096384120208,2.351096384120208,2.351096384120208,2.3526227277392517,2.3526227277392517,3.569944598795721,3.1385218191737314,2.314250363927386,2.314250363927386,2.2877682493527174,2.2881796239838117,2.287806471103926,2.288092481286529,3.25057209363664,2.591496551598828,2.389506710065982,2.390988840213798,2.389506710065985,2.3978302100209112,2.389506710065985,2.3944761014469607,3.1209030700673805,2.4009008765711077,2.941560229701296,2.9407020224371614,2.941807313240229,2.9411198852239986,2.9432833606483904,2.943676966462262
COLZA,N_wOutlier,0.3546073824573907,0.3576571672615714,0.4186515690642767,0.431571661268291,0.3794777943247521,0.3590883475232105,0.431571661268291,0.3429315105853032,0.3481335738414483,0.4348293424269149,0.3490607413193846,0.3511313039469402,0.3601645756447585,0.3494710216381107,0.3568422380870132,0.3491175988417033,0.3773973960885146,0.3494512531568541,0.3629277660379881,0.4112476381319636,0.3546684447567021,0.3546684447567021,0.3484320991869408,0.3460856577252686,0.2917342943125289,0.3189166085821966,0.313137429622946,0.2854161915625445,0.2889384631098276,1.361169266496779,1.3340150141552087,1.336210282809295,0.3511313039469382,1.392259042109866,1.392259042109866,1.392259042109866,1.392259042109866,1.392259042109866,1.392259042109866,1.392259042109866,0.2817943309196508,0.2808326467849152,0.3586908897150237,0.2867562547601898,0.2861611982186568,0.2971067283353795,1.355847734047266,0.3516788750363395,0.3481335738414491,2.186392817661916,1.4714472849554872,1.4725204551186453,1.4739066513199728,1.4739861319084364,1.4739000076889546,1.4739794286524983,1.781827647335173,1.786454587665355,1.468735502553104,1.4687005836690346,1.4701366819127395,1.4702069432551694,1.4694101710261516,1.4720793196838329,1.759556719736526,1.47811174627981,1.4693912305845536,1.4691275222949105,1.46939164241203,1.4691333318518187,1.4696689666435103,1.4696551532108355,1.9634012312747264,1.9634012312747264,1.4698462865999011,1.469644985470317,1.4698458347725758,1.469643008064112,1.4697444043395649,1.4698567647613503,1.8962386874385115,1.8962386874385115,1.3752551831531716,1.3767616321071698,1.375502468521839,1.3753918401244345,1.3752765028759135,1.3750724648767525,0.2913839365441691,0.2935807952540414,1.3616861740632222,1.3616861740632222,1.361169266496779,1.361169266496779,1.36054250251535,1.3624007041097888,0.2854161915625445,0.2889384631098276,1.3602985374090064,1.3617161460385356,1.3621169433393896,1.3598291603400294,1.3589496526963794,1.3598662212051733,0.2888063816742237,0.2843521893026369,1.3563592237693918,1.3563592237693918,1.355847734047266,1.355847734047266,1.3558312436394626,1.3573023670675846,0.2808326467849152,0.2861611982186568,1.3888800744681464,1.3847118035439043,1.385567155850833,1.383305301375763,1.3825485425379689,1.3821758900838488,0.3494512531568541,0.3499847509563793,1.3340150141552087,1.3340150141552087,1.3340150141552087,1.336210282809295,1.3388496122436973,1.3383915581935542
COLZA,N_woOutlier,0.3222596469497696,0.3222596469497696,0.3964104442405227,0.3964104442405227,0.3226672458637098,0.3222596469497696,0.3964104442405227,0.3417090507763308,0.3393929425576861,0.4075227471634456,0.3395545584668529,0.3597072369741967,0.3226672458637098,0.33867624142498,0.3222596469497696,0.3393929425576861,0.3134299730660613,0.3134299730660613,0.3134299730660613,0.4039753674502426,0.3138654754924539,0.308374776345024,0.3345266741210295,0.3338038885078084,0.2694214619779919,0.3096250835913803,0.2826226658720218,0.2628863264775327,0.2720205789380152,1.3624771619553806,1.210488124513008,1.210488124513008,0.3537750581711363,1.3954994258931592,1.3954994258931592,1.3954994258931592,1.3954994258931592,1.3954994258931592,1.3954994258931592,1.379842475358007,0.261313477617408,0.261313477617408,0.3387430207266645,0.261313477617408,0.2688208655620321,0.2585790093972522,1.354667502690149,0.346006218858781,0.3393929425576843,2.237436068660601,1.46859315302964,1.4686759894908397,1.4686782158043452,1.4687859194735295,1.4685451623232424,1.46863976810738,1.4745629247964775,1.4674461565907346,1.468808160545181,1.4688602147592449,1.4685761045665695,1.4686130526451644,1.4683355004825724,1.468316350857386,1.469562213372507,1.469849517774127,1.4685227639237266,1.469003892205477,1.4685186135016688,1.4690188242073017,1.4683703454595645,1.4689879154178485,1.5097039083492096,1.4998660992928712,1.468650613138129,1.4688258794695,1.4686542134779086,1.4688178287636695,1.46865419505574,1.4688143309244392,2.042913568198065,2.188103149384205,1.3739502004222646,1.3768862353969349,1.3738229863952411,1.378058457497295,1.373868950093739,1.3824228434920185,0.2745037978925959,0.2759894974372605,1.3601622077562854,1.3601622077562854,1.360695550274558,1.3624771619553806,1.3595393477969222,1.3599624118176414,0.2628863264775327,0.2720205789380152,1.358790204944588,1.3593725799802934,1.3585950647086378,1.3630413482440198,1.3588163721954571,1.36583804483548,0.2715786428690504,0.2740500679046222,1.3552417323285255,1.3552417323285255,1.354667502690149,1.354667502690149,1.3546819115689523,1.3546819115689523,0.261313477617408,0.2688208655620321,1.3848466910915556,1.3847565941263846,1.3850733641649946,1.3850733641649946,1.3850733641649944,1.3850933975993966,0.3401064047939514,0.3401064047939518,1.2031478466803345,1.2081399861807751,1.210488124513008,1.210488124513008,1.206779136430263,1.206779136430263
CORN,Corn_Oil_80_ZhengChenPelegYbaseSplit,0.0296536856230262,0.0265166017645963,0.0483095997059468,0.0517296114164852,0.0427419262146364,0.0265166017645963,0.0483095997059468,0.0265166017645969,0.0221767524674988,0.0455048852318927,0.0292773551075146,0.0632704807118606,0.0292503884628948,0.0292503884628948,0.0291321933864711,0.0292503884628948,0.023698596821882,0.023698596821882,0.0244667316621628,0.046804113786403,0.0223537070892451,0.0230276198491147,0.038438803641298,0.0419260100164354,0.0589935567204045,0.0569294506753502,0.0546441768755921,0.0534434337420358,0.0534434337420358,0.1696841745028631,0.1610556534754421,0.1610605382078074,0.0662781069598637,0.1603656473140736,0.1603656473140736,0.1612335304233722,0.1612335304233722,0.1603656473140736,0.1603656473140736,0.1603656473140736,0.0584320148801926,0.0560633043430345,0.0552341863675401,0.0550616293159591,0.0560633043430345,0.057681013673145,0.1695352146732317,0.0669004018957692,0.0221767524674975,0.5305216351389578,0.1882658547936842,0.1882658547936842,0.1885142605358398,0.1885142605358398,0.1837334862729888,0.1774818952680525,0.2147915036143714,0.2041280093139514,0.1744037533126631,0.1738424884081043,0.1745385614272413,0.1743173001127243,0.174609099760712,0.1744264389661035,0.1759306367780601,0.1796387716271163,0.1736938896754124,0.1736934453946438,0.1737028905650109,0.1740355237817587,0.1738100965598832,0.1740219844521842,0.3296749665496588,0.2202233488358528,0.1737308604515726,0.1737301655869948,0.1737310212842047,0.1737303745395509,0.1737311953474877,0.1737306330652483,0.2032614588223008,0.2034446691466399,0.1388107735918304,0.1388107735918304,0.1396863640017418,0.1396863640017418,0.1379891835266625,0.141358140730927,0.0612291078357092,0.0680094153277664,0.1551333644338192,0.1551333644338192,0.1694083439607509,0.1696841745028631,0.1693418887959941,0.1695646148434186,0.0534434337420358,0.0534434337420358,0.1384030639917483,0.1384030639917483,0.1392070272001666,0.1392070272001666,0.137309529005664,0.1407926749900311,0.0617810112420342,0.0681792749248719,0.1548656626784611,0.1548656626784611,0.169268456459507,0.1695352146732317,0.1692036382645509,0.1694184628842407,0.0560633043430345,0.0560633043430345,0.156604229699774,0.1564511053987588,0.157017794227462,0.1570164315706747,0.1570178371727781,0.1570154915695815,0.0274990610013725,0.0223537070892453,0.1608293349987623,0.158332464229511,0.1610556534754421,0.1610605382078074,0.1610592436466766,0.1606986875850075
CORN,Corn_Starch_80_ZhengChenPelegYbaseSplit,0.138825048492548,0.1394191461678669,0.1296241335442014,0.1296241335442014,0.1716982946000513,0.138825048492548,0.1359457962379096,0.1388250484925488,0.1694680967921089,0.1591100961670707,0.1672200488950641,0.1972009927466382,0.1460580326231108,0.1672200488950567,0.1574171669824904,0.1672200488950567,0.1842778244484035,0.1818261145435869,0.1842778244484035,0.1750835488524015,0.1997906578082584,0.1997981922369785,0.1523946862223884,0.1520063806882927,0.1452617583472376,0.1797266082401261,0.1543486927343195,0.1375181675961425,0.1543515769567561,0.7438593101659337,0.7833972164124093,0.7871328843487287,0.1972009927466326,0.787584488525021,0.787584488525021,0.7844891703347164,0.7844891703347164,0.787584488525021,0.787584488525021,0.787584488525021,0.1366980161926531,0.1366980161926531,0.1289565231260683,0.1370388070564319,0.1541622969824178,0.1606642218155613,0.7444619014603965,0.1973599463815778,0.169468096792113,4.775560296870935,0.7728179082329768,0.7840386777362555,0.7686855074609504,0.7869924333199506,0.7697719232933484,0.9143139837318652,18.0623717635132,19.94727942605969,0.7836881036252475,0.7778838007414592,0.8258277733722581,0.9174584515993652,0.8107553290064116,0.9248300134932176,15.889003146888252,19.696599477378424,0.8374639307297768,0.8346360712018316,0.8531246416059874,0.8819782850558059,0.8557482013966505,0.8970022200537094,3.2502343470791533,3.8808364640592505,0.7860225156980726,0.7922514996879102,0.7840373562685611,0.793136875534417,0.7676350980817218,0.7711970128454694,4.502117996765321,3.4985437829594077,0.6963350791832288,0.7103241718498644,0.6865287406469596,0.6896197402021781,0.7682997726972408,0.7691544616400019,0.1338709165169422,0.151882720281288,0.7441193819917098,0.7441785395640149,0.7513347866901027,0.7438593101659337,0.7514211086427334,0.7520763412353336,0.1375181675961425,0.1543515769567561,0.6962163671648167,0.7066440992179058,0.6855979402509246,0.6883282649178881,0.7667928422286681,0.767304783929998,0.1327437694569631,0.1484666646855748,0.743531849484477,0.7435871649498,0.75105379206125,0.7444619014603965,0.7510593861307695,0.7515591393590096,0.1366980161926531,0.1541622969824178,0.7803138920947738,0.7795521243798106,0.7803744056346155,0.7799166137473866,0.7813006619611956,0.7796909571435271,0.2353432217401424,0.210369804375106,0.7875837007286263,0.7875903284670952,0.7833972164124093,0.7871328843487287,0.7831937210824989,0.7874753774205769
DIESEL,DIESEL_bp50_246_b-a,3.2098879761585923,3.2098879761585923,3.634586420153751,3.827165785586727,3.348372362138384,3.2098879761585923,3.634586420153751,3.174703293794276,3.2392441601603856,3.827165785586727,3.239244160160364,3.153566743158964,3.2098879761585923,3.1747032937942907,3.2098879761585923,3.2392441601603856,3.288443808056229,3.224619517838365,3.224619517838365,3.611614764357246,3.3079268448200163,3.288443808056229,3.207362107155744,3.166042680048914,3.936280593340206,4.402120062761688,3.7184470627877486,3.098618243967272,3.094094716549574,14.052797532053551,14.001287621376571,13.99046537486864,3.153566743158967,11.523020904374231,11.523020904374231,14.040696039800384,14.040696039800384,11.523020904374231,11.523020904374231,11.134580923201671,3.1102987429017355,3.1102987429017355,4.177203738037455,3.1102987429017355,3.293885587388158,3.230321688853193,14.044412894102232,3.1597425866270337,3.239244160160377,62.26192494870558,15.23221773575066,15.84158407967226,15.920243229001686,15.964216785512496,15.743039690163773,15.864609008066711,18.17539157677748,20.84605322045053,21.05040813438736,21.351428079938724,20.815953558300997,20.92821811517543,20.81321456894176,20.67609845327832,21.07238958619972,21.567020682932583,15.694510756161804,15.915634143154271,15.573673289804614,16.143222573965126,15.517397898652828,15.589390983754765,15.82637254558256,16.187658981268417,15.968351859786134,15.911837963557517,15.757570215639598,15.836361903341055,15.857218581140591,16.26516794585217,16.0463589186763,16.009706206392053,14.355329218927654,14.351661530319594,14.358209814472255,14.351187542345578,14.360563390959085,14.358473474065072,3.100221625724056,2.945651849112764,14.06865264419025,14.054431004885348,14.069010420810445,14.052797532053551,14.075666732098686,14.07873300645064,3.098618243967272,3.094094716549574,14.353893895910169,14.358378155511105,14.351647059763875,14.34344120093698,14.355608225389224,14.351182792085192,3.2385328208222224,3.3306155118264664,14.054306637856977,14.04757421937737,14.055576129536195,14.044412894102232,14.063750978400238,14.067913896760365,3.1102987429017355,3.293885587388158,14.28793718286092,14.310036526850292,14.293164206123176,14.319311640766148,14.288594759243542,14.285312318206174,2.952683111461225,3.3565340721412698,13.999148766855068,14.014763776861168,14.001287621376571,13.99046537486864,14.011385669988764,14.042647046572425
DIESEL,DIESEL_bp50_246_hla-b,3.1628523566067,3.1039984195950616,3.851382142363405,3.878867973689832,2.786498003201579,2.963358059280102,3.851382142363405,2.926505684604138,2.7299217516730865,3.8597148785026536,2.9077582863960063,2.79444758531161,3.2590574853350103,2.926505684604125,2.999921767660517,2.7299217516730865,3.852012325961155,3.113807034100241,3.109731559666989,3.721416449638587,3.852012325961155,3.274909539821963,2.791245960549909,2.766548259317486,3.293933090859236,7.03472003862302,3.7031875406142247,2.915844331722224,3.742939266211229,17.17351516395311,16.78170068706934,17.18608706138596,2.794447585311599,16.782243789117185,16.782243789117185,16.781559065271853,16.781559065271853,16.782243789117185,16.782243789117185,16.782243789117185,3.055915011702976,2.873144470286951,3.9677403346443834,3.055915011702976,3.1134889232135734,3.001530417154315,17.208981134034264,2.7795655114591744,2.7299217516730856,41.50873559937767,19.38249214007846,17.420071028071067,23.683411675001995,23.718621852504903,23.689491183040907,23.70658285582347,18.47611197388837,17.453958509498424,18.44796024193727,18.506959953362927,18.35060411397873,18.331608342459717,18.38311777813615,18.42836375669869,18.45127908994367,18.50406069967577,17.12130441659915,17.12479363806929,17.119726714430257,17.12343092319635,17.15711097919218,17.153144137671188,17.138830653841634,17.258594537828667,17.139392549561393,17.143624566126533,17.14367648938028,17.142855696020575,17.13893745338955,17.13745966068721,17.14054456145918,17.145370227062052,17.123195133399175,17.28824439945473,17.119862183202933,17.254925748185364,17.118150953635066,17.235100940511494,3.0106413249415698,3.414629825866914,16.82070230825655,17.179876212465864,16.818921888065788,17.17351516395311,16.8183824635942,17.11038091653273,2.915844331722224,3.742939266211229,17.145726005240697,17.328890541434863,17.1410758277993,17.282963081836478,17.13778007316941,17.135413738884264,3.042358555062463,3.4481992343675967,16.802917279963076,17.215349042403727,16.802625393523087,17.208981134034264,16.80196776369798,17.13381150458212,2.873144470286951,3.1134889232135734,17.136036611994065,17.303036456665502,17.134687496077365,17.289129285600666,17.13050071798005,17.131404435073957,2.937998395302957,2.841614893299292,16.781898512277646,17.19144916145449,16.78170068706934,17.18608706138596,16.781335361315964,16.78664785007439
DIESEL,DIESEL_bp50_246_hlb-a,3.0295653387466577,3.104283833452879,3.882591351570792,3.804078273892004,2.9662018449794694,2.9662018449794694,3.1362095273049966,3.018745524649935,3.7028092269063935,3.804078273892004,3.633589008056778,3.702809226906426,2.958364440526001,3.1671818107461998,2.8694085513110474,3.7028092269063935,3.070016662310726,3.1403701740773715,3.1403701740773715,3.9095981536124,3.1299828762241324,3.016035123784715,3.086272468656288,3.09628158513161,3.1979881084054886,4.725964185835456,3.807049273417896,2.9855792580564,3.323640260276154,14.363227196548255,14.33789108431086,14.331172566882511,3.137451600951606,14.3387986823669,14.3387986823669,14.334156968659968,14.334156968659968,14.3387986823669,14.3387986823669,14.3387986823669,3.035036923599409,2.924556953814528,3.900902046432255,3.035036923599409,3.028884017331274,3.107897521385328,14.35283828530438,2.958643990126626,3.7028092269061994,58.51485664946043,14.95762074383216,14.95202759610839,14.956962451132588,14.956936175924726,14.9574725965552,14.958196886705316,24.677745019583043,23.370313797103435,14.96123015881624,14.97142523922147,14.96089658827412,14.977655240300797,14.960891875297824,14.972003220472944,14.961327147102669,82.57707690184223,15.003656083489592,15.003656083489592,14.997997840136264,14.997997840136264,14.98843195752683,14.98843195752683,30.32840045415508,55.24881896195791,15.000386213658324,15.000373913683683,14.992235484711216,14.992235484711216,14.982454248049342,14.982376754639922,48.53471558410246,48.35825226540387,14.573968303792585,14.571819272844929,14.57656438006812,14.55258713442447,14.57858304661184,14.582073462842182,2.987420131120605,3.11739018367996,14.37554273786258,14.354581975853089,14.38158853321881,14.363227196548255,14.37486725708558,14.373329138912723,2.9855792580564,3.323640260276154,14.577560099383176,14.569438815157811,14.575363593607989,14.545483316899508,14.578743445748923,14.5823928397877,3.0332946794109,3.0332946794109,14.366484469388876,14.343131380600262,14.37512247970435,14.35283828530438,14.366893941666476,14.36465320133243,2.924556953814528,3.028884017331274,14.565801183641652,14.587801859953649,14.58249888836404,14.584034087457251,14.586030772640044,14.583784384857802,2.9696993523908666,3.5475921595540068,14.337737895281007,14.313401973510985,14.33789108431086,14.331172566882511,14.33822423289723,14.33822423289723
DarkResp,Rd25_CBtestSite,0.2287746993631384,0.2287746993631384,0.2589677211546614,0.2278641640946068,0.2993597488587591,0.2287746993631384,0.2422800464805326,0.267069303165675,0.24722866703895,0.23099003020389,0.2573186781052314,0.2343203031321842,0.2287746993631384,0.2574804730873216,0.2287746993631384,0.2573186781052314,0.2282633518353795,0.2282633518353795,0.2282633518353795,0.2385262251398832,0.2282633518353795,0.2282633518353795,0.2741069763176885,0.2781613469356897,0.3562872816166629,0.3616078601700423,0.2629540492717397,0.2369963834970944,0.2586398987289565,0.3539464179998039,0.3668908525654841,0.3668908525654841,0.2287753653898592,0.3628022215573137,0.3628022215573137,0.3628022215573137,0.3628022215573137,0.3628022215573137,0.3628022215573137,0.3628022215573137,0.2390092682562619,0.2656565231905903,0.23740127091322,0.2390092682562619,0.245760016263662,0.2411333748537153,0.3554359999764673,0.2339507436247258,0.2472286670389493,0.7210983157134576,0.3570461484416178,0.3592503785916525,0.3569359807171163,0.3591604399550378,0.3567190827537414,0.359475605208039,0.3614073941584131,0.3714242879277293,0.3556661964572133,0.3564252862042715,0.3562538489166743,0.3562724164939783,0.3562548747001046,0.3562673277991322,0.3557735223950383,0.3612482265942356,0.3552273362963123,0.3554663187789063,0.3552272919267928,0.3554705497527519,0.3552272855028122,0.3554875005262546,0.4009117059557155,0.3827547084690493,0.3552583660239575,0.3554689783320816,0.3552306902493297,0.3554500393720731,0.3552306790029177,0.3554508309292356,0.3817947650100113,0.3817947650100113,0.3711769914604069,0.3740149804098527,0.370023088407241,0.3721787983040591,0.3723549784777354,0.371695822711689,0.2495110594550102,0.2495110594550102,0.3628148885857526,0.3715688927992192,0.3591113292654918,0.3539464179998039,0.3609543189403456,0.3609543189403455,0.2369963834970944,0.2586398987289565,0.3714968571410567,0.3746011280906666,0.3703683173345102,0.3726403000627283,0.3730138174020031,0.3723745597492472,0.2503668740135197,0.2549671229292646,0.3648755603489023,0.373491401454611,0.3604838792366976,0.3554359999764673,0.3622732209652338,0.3622732209652338,0.2656565231905903,0.245760016263662,0.3506600295339689,0.3414340907451286,0.3499249884810741,0.3499649562893258,0.3610625847325567,0.3610625847325567,0.2396953873761054,0.2408623141423658,0.3524476105231474,0.3526797338649031,0.3668908525654841,0.3668908525654841,0.3573262559705026,0.3571779778971169
DarkResp,Rd25_GTtestSite,0.2085747113420383,0.2085747113420383,0.2219333503972153,0.2219333503972153,0.2962629476981777,0.1968682286119768,0.2219333503972153,0.2038005769093663,0.2040336712896285,0.2389131097071899,0.2644360224609102,0.2256719910537564,0.2031003999099394,0.203609981862407,0.1907353896202484,0.2730388957282633,0.3194549265892003,0.3194549265892003,0.3168263316355039,0.2504366386840956,0.3122658393046436,0.3369585031866592,0.2566230860899721,0.2610234517962276,0.4097654535342435,0.3578875515062937,0.4222295657229106,0.4685332661559325,0.4336347671109747,0.4101201897649754,0.437006855421438,0.4498849952128539,0.2041572375797028,0.4259242378067027,0.4259242378067027,0.2657889924022123,0.2657889924022123,0.4259242378067027,0.4259242378067027,0.4259242378067027,0.2757360495403225,0.4608590280044481,0.3393203237117454,0.2757360495403225,0.4462321985966674,0.4602749765858468,0.4127376878487417,0.2004846690008244,0.2040336712896281,0.5901943422549907,0.252964126032294,0.2519281401875413,0.2529648076533161,0.2525353261117777,0.2529642028517926,0.2529648467376315,0.2505821303269531,0.2575286106767283,0.2492798436816384,0.2492798436816384,0.2493050202132593,0.2493050202132593,0.2492322234739911,0.2492016152856391,0.2492965321534257,0.2492965321534257,0.2515345986964741,0.2515239336860563,0.2521677862556672,0.2521009140166354,0.2516958419891608,0.2512378973396943,0.2618406899143031,0.2618406899143031,0.2489561790185711,0.2489370368119005,0.249724351325135,0.249724351325135,0.2500902801137772,0.2494764433306854,0.2482202465903902,0.2481944454795864,0.441419324277662,0.441419324277662,0.4414918112460873,0.4414918112460873,0.4414918112460874,0.4465935630229293,0.4939709951883981,0.4922477499723214,0.4526337220238584,0.4239819644257073,0.4378559562508758,0.4101201897649754,0.4247817406686967,0.4112642150278346,0.4685332661559325,0.4336347671109747,0.4429359021138213,0.4211976526330476,0.4430130821865728,0.4353467582957164,0.443013082186573,0.44993564908599,0.487295544986364,0.4901450780440017,0.4487913050823379,0.4258666627045749,0.4340049019608963,0.4127376878487417,0.420684505280747,0.4134846307575942,0.4608590280044481,0.4462321985966674,0.3157801429964799,0.310451363648592,0.28763887434019,0.2918401522046252,0.3183307605228274,0.3161091083788657,0.2853811739925594,0.2979764537934936,0.4151062529999338,0.4151781866825453,0.437006855421438,0.4498849952128539,0.4326134278857793,0.4483101168729736
DarkResp,Rd25_XSBNtestSite,0.2804748394320114,0.2847412126714401,0.2678096444133925,0.2829425611697126,0.283538342767155,0.2804748394320114,0.2829425611697126,0.2706237199661699,0.2636621588493365,0.2768278953656022,0.2648639348411965,0.2274015416371717,0.2837044671027955,0.2661635479999639,0.2804748394320119,0.2646925694307607,0.2844048615123822,0.2656678215792209,0.2844048615123822,0.30414985326839,0.3042177003224225,0.2844048615123823,0.2878496665402203,0.2886377399825804,0.2573896747182022,0.2998898153126211,0.323685588043916,0.2800812476046836,0.2376193580405404,0.2549861723385946,0.3717019095058989,0.3519799611909314,0.3157744227206742,0.3886710021618169,0.3886710021618169,0.3886710021618169,0.3886710021618169,0.3886710021618169,0.3886710021618169,0.3886710021618169,0.2754387474923346,0.2552675933990025,0.2863910152890425,0.2904329484219697,0.2449859632774053,0.301204476684956,0.2551424767944527,0.2808440817064049,0.2636621588493358,1.4673074919957936,0.3126738656988201,0.312673200377374,0.3126808144756283,0.3126207707844897,0.3126812333041593,0.3126232968179918,0.3845422998185535,0.3845422998185535,0.3163084050339654,0.3163095549233775,0.3164194514347349,0.3164206216284021,0.316399566804969,0.3164006092175701,0.4039139036375454,0.4039139036375454,0.33043260775394,0.33042179808131,0.3304663378369323,0.3304378950986766,0.3304670047240832,0.3312972310875197,5.6764697083992255,4.162275396660358,0.3203317683883604,0.3178748111979338,0.3161965095903079,0.3504280100791647,0.3389554277027817,0.3390074273529386,0.3216601248007647,4.886350110876058,0.3439194923737075,0.3421652888599092,0.3421873118751591,0.3422104194255273,0.3384899282217514,0.3374129212540835,0.2565032053508249,0.2657473285775653,0.2627558837459788,0.2582079739670047,0.2626118111371753,0.2549861723385946,0.262670690913158,0.2727457353678099,0.2800812476046836,0.2376193580405404,0.3431364128956453,0.3412416831653285,0.3416019854560843,0.3413236075173398,0.3379194718352838,0.3373713576413187,0.2562479839978708,0.2670891308222128,0.2620734403033234,0.2578177064579544,0.2622483853147408,0.2551424767944527,0.2629031271672039,0.2629031271672039,0.2552675933990025,0.2449859632774053,0.3541685765681886,0.3332247489294258,0.344666252720423,0.3211775585853352,0.3459069292955861,0.3188481622972221,0.256530577608987,0.2679481806244215,0.3672034035689161,0.358381183060485,0.3717019095058989,0.3519799611909314,0.3740561063774581,0.3522514701293153
DarkResp,Rd25_spxy70,0.1797052580985586,0.1781223377032262,0.1790821102638709,0.1754586104291702,0.1812041302892248,0.1797052580985586,0.1790821102638709,0.1830246266464244,0.1802349854499946,0.1827302360021761,0.1843451623439338,0.1819333844612444,0.1819919165673409,0.1829625689274641,0.1815471276093411,0.1843240700858512,0.1861443271639246,0.1863311930096932,0.1863311930096932,0.1854646194435272,0.1863846987244122,0.1861443271639247,0.1765886194458295,0.1759886323484429,0.1907127401240307,0.1926535218096513,0.1918215606737746,0.1825720314770105,0.1929546834354194,0.2476322042680121,0.2396734807517034,0.2396699117288379,0.1785767474579984,0.258430143425578,0.258430143425578,0.258430143425578,0.258430143425578,0.258430143425578,0.258430143425578,0.2584301434255781,0.1829733265971961,0.1840663127739677,0.1855971598628216,0.1809738211539382,0.1937904701689789,0.1948572053926899,0.2480306834655962,0.1798051837311846,0.1802349854499947,0.6474546040053328,0.2601329635854807,0.2601329635854807,0.2599030512659874,0.2599030512659874,0.2597617407269745,0.2597617407269745,0.2446834891543766,0.3752121274169434,0.2609275967674218,0.2609254517849116,0.2611805300587098,0.2611805300587098,0.2611978317381059,0.2609534145713412,0.2722804146385757,0.3301495719080327,0.2604321908482329,0.26039279830573,0.2604769696463164,0.2605589406012528,0.2604621026271163,0.26045966813798,0.4964347415345183,0.3912550213507407,0.2607350758726178,0.2612024669357361,0.262224737877877,0.2617275490918569,0.2614513656372349,0.2609031106369484,0.6738667008075189,0.4898584509719031,0.2475930657795748,0.2580118891067393,0.2475906456218318,0.2475873228129241,0.2475938782932214,0.2475927430468673,0.1943262126089434,0.1943262126089434,0.2470842366981111,0.248545936139721,0.2476322042680121,0.2476322042680121,0.2460075107871294,0.2468455678064431,0.1825720314770105,0.1929546834354194,0.2472018887033862,0.2580951638846651,0.2471995348573938,0.2471959540441118,0.247203102309557,0.2472018704004392,0.1947990788169261,0.1947990788169261,0.2472091830024913,0.2486745584149016,0.248030683465596,0.2480306834655962,0.245993360856315,0.247035790428401,0.1840663127739677,0.1937904701689789,0.2369542132538276,0.2370536326046475,0.237012026797479,0.2370369215364941,0.2374726840409851,0.2371869553463907,0.1934222213278447,0.1941553113911347,0.2391085750085274,0.2369283034983325,0.2396734807517034,0.2396699117288379,0.2376180397820093,0.2376251276909018
ECOSIS_LeafTraits,Ccar_spxyG_block2deg,74.51104841235468,70.98125640039996,55.86672720879382,55.57345199829334,62.98913243310813,70.98125640039996,57.79186872300805,62.98913243310822,81.25415965345452,51.27774877352509,62.977759603079214,70.98125640040081,74.3794691589233,62.98913243310813,67.00164888274625,62.98913243310813,49.00707479417701,55.75803496577898,55.75803496577898,47.64947851099329,45.8605164936092,62.0163649037968,71.63046521797216,69.9795765737768,70.10016683931752,52.88131010451875,73.58806117975753,70.28121310231462,70.28121310231462,8.835973785493042,35.95856266665289,35.29110390550854,70.98125640039986,39.1586470276985,39.1586470276985,39.1586470276985,39.1586470276985,39.1586470276985,39.1586470276985,39.15864702769852,67.07742270027613,66.6777087778703,59.1705959831557,64.12003433917731,95.53593470275727,65.92964669802046,45.812153069605145,70.08189746632372,81.25415965345289,160.5726699862574,9.380451417481428,9.383080289504642,9.383285372142616,9.387446886618411,9.382769955054068,9.3866883896704,10.23538129566502,10.157366934373078,9.375511151204377,9.37567988612565,9.376445569900026,9.376244103665394,9.376139751123567,9.377194905500762,10.653008799617698,16.207162813951623,9.381980838385564,9.38014723959849,9.381566094904857,9.38124034316063,9.381980838385564,9.380461649992291,9.397380411858274,17.950758928127176,9.399871705480091,9.39270741284326,9.426857092595617,9.39192769452622,9.426354469068071,9.391749625249496,9.4047397168725,9.390697638773096,9.457041390901344,9.325891939844592,11.98695217972065,12.349133840832383,12.27427669530404,13.25617318203724,72.24948680839393,69.71417947702108,8.816424080728046,8.820298206241507,8.824697595011962,8.835973785493042,8.921083683384685,8.860678620260384,70.28121310231462,70.28121310231462,43.61284761096458,37.14083628968148,37.27611202858504,36.75858874282204,38.36390935742953,36.99616656524763,68.22205035366122,104.77840045556415,40.843554669217895,43.2884071985461,45.90327384472898,45.812153069605145,44.8341694385712,44.60174021549,66.6777087778703,95.53593470275727,37.134582332380646,36.68130384486637,37.462470087511136,36.83374648625044,37.56076196029895,36.86505994447312,75.75153737211939,82.24264268700857,36.86664085158057,35.35749284602895,35.95856266665289,35.29110390550854,34.9835856338396,35.346754856628934
ECOSIS_LeafTraits,Chla+b_spxyG_block2deg,46.18869619477093,46.18869619477093,53.1947117927065,49.87087135152097,46.18869619477093,46.18869619477093,49.87087135152097,46.38155006768061,45.39112303504521,49.87087135152097,45.72806905489868,44.74896317712065,46.18869619477093,43.260885031018695,46.18869619477093,45.39112303504521,53.60913374119376,53.60913374119376,53.60913374119376,43.75897572664464,53.60913374119376,53.60913374119376,42.20858910957918,43.17578006566488,56.96393531258556,52.62630936091988,70.31079242138415,72.58398462073671,54.989719407106186,13.988642344846005,31.11852083427929,33.27458472021222,42.137258929172674,27.78181943427569,27.78181943427569,27.78181943427569,27.78181943427569,27.78181943427569,27.78181943427569,27.781819434275693,50.77478026847046,47.66788906580381,46.42437614366149,50.77478026847046,53.12800033278465,51.57849882769701,38.813286479563445,44.94281039018704,45.39112303504525,121.12699871424093,14.017400010761811,14.01740911727384,14.015841827540548,14.019985319695888,14.015707192320072,14.020122278276816,120.96507210400682,120.96507210400682,14.085333692462331,14.053396839288787,14.071162488566264,14.078539599059154,14.073688143407614,14.076255950899986,89.02452909624223,89.02452909624223,14.289508204615586,14.273132042643088,14.162592565977054,14.158324300008816,14.178895061241322,14.183728491325793,18.027070964475485,18.027070964475485,14.22409857962464,14.22764405812644,14.232902761733271,14.232902761733271,14.22019274867232,14.221604390613477,14.656627824328655,14.656627824328655,15.04938418328236,15.04938418328236,14.772396347397994,14.772396347397994,14.52495157544642,14.52495157544642,77.30813267957382,56.60401162799446,15.239572748158803,15.239572748158803,13.969963593403508,13.988642344846005,13.951962642419916,14.019408214443798,72.58398462073671,54.989719407106186,24.99398278028922,28.861659214537223,23.0729800237372,23.46022319324684,23.7767790209154,23.784961670132716,50.65281841123874,51.093918150605056,39.86398013411949,39.69269037654958,39.25063751680104,38.813286479563445,41.65780112908443,41.65780112908443,47.66788906580381,53.12800033278465,30.27348599088368,30.67334063842465,30.29834307586526,30.68298271016163,30.85936903100585,31.37135283550779,41.46141137523855,56.85718311875883,31.088285962838487,31.088285962838487,31.11852083427929,33.27458472021222,31.10497406169984,32.152760038773685
ECOSIS_LeafTraits,Chla+b_spxyG_species,50.78026849355031,50.78026849355031,60.832623465557184,56.76883936498408,50.78026849355031,50.78026849355031,60.832623465557184,50.78026849355085,50.78026849355031,56.76883936498408,50.77031815820983,49.62585242726729,50.78026849355031,50.78026849355031,50.78026849355031,50.78026849355031,39.90910048985883,39.90910048985883,39.90910048985883,40.81606991340069,43.51948641169348,43.51948641169348,48.28923641036824,49.45580921691402,56.9377144163604,57.335094569262125,61.047496181759136,71.02386380653773,71.02386380653773,15.040509018805423,33.50686450600391,33.86274528911794,49.62585242726549,33.74543032446264,33.74543032446264,33.74543032446264,33.74543032446264,33.74543032446264,33.74543032446264,33.74543032446264,54.851487749536496,55.959428691966544,56.40447402755279,54.851487749536496,52.241316956587305,58.38404356873136,45.69054945718421,47.72713519601925,50.78026849355031,136.23316504096593,15.87509578703575,15.831744063515458,15.84416982590932,15.838666770880971,15.832817166108343,15.8579108840499,37.860353205400784,39.66387728290191,15.82648933678468,15.821615228210131,15.823900200310694,15.838222447560211,15.821099027321909,15.826755014474475,40.17209399687463,40.31510297447375,15.64618786654012,15.646036504840108,15.66007648047168,15.660604341123634,15.657711237728684,15.659880696300569,67.42314142870539,88.98832200787561,15.64388929565934,15.643869350004977,15.643769167451698,15.643838669526223,15.643855398187778,15.643783836323522,86.54260034789384,61.47033187125693,16.63069541608793,14.019228997409694,16.293807057897187,14.817558252143792,16.454992987651536,14.213861280996392,59.36459727003076,71.57775673804292,16.210512300622767,15.353548449108644,15.250242296494047,15.040509018805423,15.313474483326663,15.36619240719045,71.02386380653773,71.02386380653773,27.56149176415464,27.143282120053247,28.74284301337147,28.369139013116133,29.52983281696509,29.52983281696509,60.025852244151096,60.025852244151096,45.54654678347552,43.60640272941122,45.849646082370434,45.69054945718421,45.685260168382015,42.796440573504526,55.959428691966544,52.241316956587305,32.71714493884268,33.8773854444907,31.672899548386308,31.432022999668792,32.87815082891288,32.099552133732075,56.55375629329011,56.46984661463343,32.45848327883591,33.41066853186058,33.50686450600391,33.86274528911794,33.29597212494755,33.674604856943375
FUSARIUM,FinalScore_grp70_30_scoreQ,,,,,,,,,,,,,,,,,,,,,,,,,,,,,,,,,,,,,,,,,,,,,,,,,,1.4959948920242627,,,,,,,,,,,,,,,,,,,,,,,,,,,,,,,,,,,,,,,,,,,,,,,,,,,,,,,,,,,,,,,,,,,,,,,,,,,,,,
FUSARIUM,Fv_Fm_grp70_30,0.0313004338283994,0.0313004338283994,0.0313004338283994,0.0313004338283994,0.0298817174303827,0.0313004338283994,0.0313004338283994,0.0337650987839693,0.0332806883930885,0.0315831379034353,0.0332840125826156,0.0301112352057618,0.0318207433105703,0.0336941862356928,0.0325248904035239,0.0332806883930885,0.0329009912248967,0.0307229971751573,0.0329009912248967,0.0309653495029494,0.0305310223132679,0.0275312994444184,0.0342474021387006,0.0343117218602347,0.035692035959465,0.0350847551438359,0.0343358745856752,0.0340037137304644,0.0323576017569861,0.0331951348706994,0.0363721780408954,0.0363529261456814,0.0312437833300191,0.0350443566782395,0.0350443566782395,0.0352323835492644,0.0352323835492644,0.0350443566782395,0.0350443566782395,0.0350443566782395,0.0312552412496527,0.0340052221739491,0.0312552412496527,0.0312552412496527,0.0323650484799103,0.0320931331095499,0.0332046104945536,0.0329369967781742,0.0332806883930885,0.1361751793429677,0.0372386337460333,0.0372082674558109,0.0372937338085082,0.0372735061150559,0.0372892987669452,0.0372720029088421,0.0874376161449791,0.0858972817954175,0.0373484709742397,0.0372534991565409,0.0372438017265651,0.0373505788038311,0.0372438309694208,0.0372438503961565,0.0497553625213193,0.063816524022438,0.0372521771107759,0.0372844035322168,0.0372766388879424,0.0373248757556344,0.037274480096881,0.0373008726913146,0.0469743814019152,0.2092139227851836,0.0372303332258083,0.0372282782870256,0.0372777823337058,0.0373201861530704,0.0372776313670383,0.0373293168014719,0.0392855321366883,0.0404490860787002,0.033496591366134,0.033421420043978,0.0334986253796249,0.0334288509085268,0.0335214575291489,0.0334998414394582,0.0321870097702828,0.0320148534587084,0.0333147198368621,0.0331744016392153,0.0333987341067511,0.0331951348706994,0.0330496460449314,0.0327295766335821,0.0340037137304644,0.0323576017569861,0.0334719857774536,0.0333964765503685,0.0334738045471902,0.0334043119542316,0.0334948385293222,0.0334724318986774,0.0321732263784349,0.0320098405753137,0.0333109199407796,0.0331768833297895,0.0333949432327768,0.0332046104945536,0.0330369898979733,0.0327316750373971,0.0340052221739491,0.0323650484799103,0.0357360123149476,0.0357360123149476,0.0343821378103863,0.0343529392301167,0.0343817930385508,0.0343577238026966,0.031922671043484,0.0320633582903098,0.0345754293514664,0.0344787940461177,0.0363721780408954,0.0363529261456814,0.0350436352839538,0.0353344908616324
FUSARIUM,Tleaf_grp70_30,,,,,,,,,,,,,,,,,,,,,,,,,,,,,,,,,,,,,,,,,,,,,,,,,,5.033135404555842,,,,,,,,,,,,,,,,,,,,,,,,,,,,,,,,,,,,,,,,,,,,,,,,,,,,,,,,,,,,,,,,,,,,,,,,,,,,,,
GRAPEVINES,grapevine_chloride_556_KS,1027.211654785527,977.5131269359132,1031.0505123153482,1074.6265010860805,916.5580773140164,977.5131269359132,1044.2175618673948,977.5131269359118,962.748146765652,1058.6423134109675,976.996286403054,975.365975333504,1006.270079417455,968.3041110689866,969.8446386488874,976.9962864030542,982.2121128570066,946.433029780042,1013.8642066044056,1027.2748442035447,1011.9529354234924,960.8262966974928,980.7136214345372,978.9377890908784,1092.3672175014424,1293.1014249141797,990.7629822032328,966.3917578728004,949.605246503676,1464.659089759918,1481.068695904108,1481.0559226245289,999.9623686959302,1481.6602151419752,1481.6602151419752,1481.3536625710092,1481.3536625710092,1481.6602151419752,1481.6602151419752,1481.6602151419752,954.7412853512552,942.641546347164,1021.0193543545712,957.1334185312106,932.586649948704,998.5661557852828,1464.496391835821,995.8187006580434,962.7481467656507,3774.499830009973,1502.6132422958544,1502.6064817011404,1502.6126889886373,1502.653038431812,1502.652927523562,1502.9646126928571,1499.3233706330875,1510.901796064096,1503.8530067543047,1503.4012750493682,1503.758674587751,1503.7562961888175,1503.7592305956002,1503.756296793509,1518.7504854544602,1518.7504854544602,1501.0871735196768,1500.564108927647,1501.2310546302358,1500.721822121027,1500.9613581347398,1501.0968359665976,1501.324489984534,11775.951617517972,1501.6727226755238,1501.0874822764374,1502.4633565033398,1502.4736422605845,1502.4456664131023,1502.458196168748,11381.251118785109,8928.093715046743,1485.262063284537,1485.3138732145387,1485.5247703417178,1485.622075214388,1485.5948123305895,1485.6972402615345,956.8650150433808,999.0999920067956,1463.395407536855,1463.5864530366143,1464.261396903314,1464.659089759918,1464.2692803406017,1464.644519577971,966.3917578728004,949.605246503676,1485.7468035146885,1485.803052392882,1486.0082736956442,1486.1102428876536,1486.0769725561709,1486.1860370979512,945.6235905320416,993.3275237986604,1463.2462672156998,1463.4490890646853,1464.112230154044,1464.496391835821,1464.1200601467474,1464.4824597396198,942.641546347164,932.586649948704,1484.949325483013,1484.1742910826586,1485.2029395828993,1484.6051262386884,1485.9670785319463,1485.9712896974245,946.433029780042,982.0746594543488,1481.0858392988791,1481.0770326507484,1481.068695904108,1481.0559226245289,1481.2722513620145,1481.3040578674306
GRAPEVINE_LeafTraits,An_spxyG70_30_byCultivar_ASD,3.924664127092537,4.077997851474462,3.92550105780016,3.92550105780016,4.988593401834862,3.92550105780016,3.92550105780016,3.904052294157028,3.904052294157023,3.92550105780016,3.899854496051621,4.144119912109182,3.924817899966023,3.904052294157023,3.924664127092537,3.904052294157023,3.480108579462335,3.7911966874422927,3.511405643428353,3.89541544342053,3.4882356598529216,3.414697830100395,4.415844963023101,4.404988607326972,3.378092955545297,3.5933422009415263,3.7703095669102695,3.684156779849176,3.87257024453236,3.400311793196515,3.444270786849549,3.4710614639860022,3.8675945555060345,3.451019126332185,3.451019126332185,3.425707728618633,3.425707728618633,3.451019126332185,3.451019126332185,3.451019126332185,3.88777996573949,3.663345063039398,3.7462477349011247,3.5803202485445023,3.79781959529445,3.77962231206691,3.3995422066555854,4.090207099059848,3.904052294157057,23.61204225006645,3.652350966512282,3.639322443805325,3.6536515095706297,3.649132664334955,3.6532444464322458,3.64500799217742,3.7511399640236136,3.679208851493843,3.642080560075795,3.702465748657785,3.642194641283667,3.700480011174174,3.6414252378507856,3.653894095242601,3.825803700087975,3.823215275559769,3.612640063256716,3.612640063256716,3.6127781739614666,3.61284777712657,3.612827347224498,3.612827347224498,5.904070833136712,5.8674301201558405,3.608029012239142,3.608099175031243,3.607460592889928,3.607156546136629,3.6070111408798775,3.606701752630604,3.347000967804583,4.245524670223522,3.446265601680369,3.5103341112791524,3.425062775928198,3.5123659768173487,3.434558179802947,3.469825793918022,3.665864604707741,3.81191567328879,3.402547570446142,3.422761049157644,3.3909034125485205,3.400311793196515,3.397671427546707,3.4116843441860607,3.684156779849176,3.87257024453236,3.444196144977448,3.512354138103946,3.4219153317588757,3.5143374299921346,3.4335536110552045,3.476257171450452,3.652038515823463,3.800677970773072,3.4009751367200445,3.4213023753844536,3.389945498270489,3.3995422066555854,3.39686284555258,3.410728626505144,3.663345063039398,3.79781959529445,3.4280181083047148,3.521320299773252,3.4128840390488184,3.49942013964835,3.429325577541696,3.477671668038314,4.174785984673144,3.798212071642568,3.5715979808384835,3.647710223240891,3.444270786849549,3.4710614639860022,3.4325846925620573,3.508432441506529
GRAPEVINE_LeafTraits,An_spxyG70_30_byCultivar_MicroNIR,3.6193986737131594,3.525626689488803,3.4400208993859405,3.525626689488803,4.395494585730479,3.525626689488803,3.4400208993859405,3.6907866055943135,4.342701659250161,3.5543033087542324,4.21096610756084,4.3147003116083145,3.5797432134529945,4.236296771791323,3.457516940570136,4.214963676496385,3.569770198727373,3.622234351157957,3.622234351157957,3.668081156627861,3.581986028182468,3.693885061746556,4.299894194553233,4.30653058606366,4.345288067389603,4.492819762867573,3.9346929536819473,4.124349098180924,4.553693285090473,4.189047400249845,4.1511390895590585,4.160144506703597,4.314700311608212,4.1663827437574685,4.1663827437574685,4.1663827437574685,4.1663827437574685,4.1663827437574685,4.1663827437574685,4.1663827437574685,3.757274854239136,4.095197895076004,3.757274854239136,3.765012403855043,4.59287518764909,3.774869993151164,4.189205589953956,4.324342041360461,4.34270165925013,21.223067741379545,4.181925539224766,4.1801436523554285,4.179451805227839,4.179345748463758,4.179647673267802,4.179432009906324,3.9538319221443072,3.920550907230109,4.200013349663353,4.19937053785738,4.199376973974169,4.198127047420416,4.200113537783532,4.200177774964637,4.170041856290962,3.793922626879328,4.187808295204119,4.187808295204119,4.1877969944005695,4.1877969944005695,4.186108008331146,4.186743188044458,4.183484867344868,4.636156457140058,4.1941575604980255,4.194783880050535,4.190514059538469,4.190215146929315,4.190571117522467,4.190261247904106,4.5760258721942,4.633289153599073,4.225718939299137,4.1587389480965165,4.221007542082692,4.118886815031206,4.226676699433114,4.23255255191421,3.8209000862514144,4.553376135764134,4.246005623641357,4.22177439352747,4.249122144249329,4.189047400249845,4.257797731191518,4.268208192659046,4.124349098180924,4.553693285090473,4.226326114045249,4.1594753369311785,4.221835972897209,4.120167771559439,4.227213941344783,4.232817839143871,3.8259007609015008,4.532783268917545,4.2458428586546,4.24155695583324,4.248980095322191,4.189205589953956,4.257931217728413,4.267797803507947,4.095197895076004,4.59287518764909,4.243213373196916,4.281661469419357,4.221062384953583,4.081358359725306,4.206115169734373,4.204762783366995,3.706193081642031,3.9483790264492704,4.105290319312188,4.103609816344063,4.1511390895590585,4.160144506703597,4.146789741235192,4.146658179546495
GRAPEVINE_LeafTraits,An_spxyG70_30_byCultivar_MicroNIR_NeoSpectra,3.8018856192510566,3.791200099624012,3.589473937715188,3.818166551599653,4.771731632161637,3.818166551599653,3.818166551599653,3.968067027375122,4.353367958873348,3.820834368032705,4.395372997755818,3.939683869037638,4.020602093439902,4.50133428741381,4.639283068858939,4.395372997755809,4.456021448968085,3.617613255820191,4.114750976923746,3.974444970256122,4.3692891265310045,4.78563231563914,4.737870788541779,4.762953387895385,3.8502697913609136,3.9326932016300735,3.867218678119905,4.50711304954593,4.336725762487005,4.192566648970598,4.192357848903831,4.20631451638576,3.863437771536008,4.177014690712271,4.177014690712271,4.177014690712271,4.177014690712271,4.177014690712271,4.177014690712271,4.177014690712271,3.927340611259283,4.465830678783534,3.927340611259283,3.927340611259283,4.32548376237473,3.9886878365238143,4.19287919089722,4.841057345602286,4.353367958873357,22.44038859601197,4.1853514854188925,4.279968522622972,4.202692639072777,4.276427493080041,4.196531399794132,4.216006549234234,5.721204926665877,5.492712912986358,4.191433942826509,4.191433942826509,4.1880223627042,4.187815404631268,4.188110673608827,4.188052316840096,7.376828295779773,7.376828295779773,4.208220211688652,4.209606784883857,4.208450150421776,4.206267865478871,4.208500716206735,4.206684925580383,4.02446207531808,3.978461466053953,4.166747502361024,4.1662794046224585,4.177923376894645,4.189668286705814,4.177691733063496,4.171243372431698,4.054051042106964,4.0550968036210575,4.189660527706145,4.193776906149387,4.213214197959093,4.202330757858741,4.213437019886462,4.202492990504651,4.391254579662838,4.354260106573418,4.192761844120345,4.192761844120345,4.192566648970598,4.192566648970598,4.192759517374285,4.192759517374285,4.50711304954593,4.336725762487005,4.18971048557739,4.1923672460268,4.2133565024635455,4.202464168199641,4.213602215096572,4.202643762375059,4.369623416835064,4.3440748711614825,4.192832617396907,4.192832617396907,4.19287919089722,4.19287919089722,4.192815021882595,4.188702180467263,4.465830678783534,4.32548376237473,4.154196523679988,4.179090513234699,4.174934285029866,4.174934285029866,4.184345566391837,4.187222746457148,4.406503277431537,4.692040300417079,4.191944399471248,4.183668170942458,4.192357848903831,4.20631451638576,4.192430920387419,4.161553644030609
GRAPEVINE_LeafTraits,An_spxyG70_30_byCultivar_NeoSpectra,5.197543888046767,5.155516687304964,5.155516687304964,5.197543888046767,5.198495004228249,5.155516687304964,5.012778254986404,5.117988787348381,5.524703973348429,5.197543888046767,5.387136488497643,5.4163734949406654,5.197543888046767,5.117988787348385,5.197543888046767,5.524703973348429,4.891762756671337,4.977813573445099,5.172397093921704,4.891762756671337,4.932244736480458,4.932244736480458,5.189015112365241,5.147899833516985,4.787655578538395,5.348889584242192,4.507352991289813,5.06694765092494,5.407312570812179,4.437272588702252,4.360234508164494,4.363803459462811,5.1975438880467655,4.451894568122056,4.451894568122056,4.358986074021438,4.358986074021438,4.451894568122056,4.451894568122056,4.451894568122056,5.089649318868311,5.074390594846375,5.089649318868311,5.089649318868311,5.386142744672812,5.097421283297512,4.437441455633038,5.22483100427357,5.524703973348358,66.16308276596827,4.40756352564535,4.40756352564535,4.4154962214027815,4.412053734791864,4.430426868673945,4.408963285899834,4.424095340423716,6.663170288100615,4.408215876761567,4.408215876761567,4.407755070683233,4.408004372081215,4.408576203481334,4.408340729568581,4.422349358656514,4.422349358656514,4.423766834565012,4.424037553551271,4.425175891814079,4.425447148250522,4.425247546934646,4.425462370174409,8.14543018808477,12.788999228713404,4.424842387520383,4.424842387520383,4.424875210622773,4.424875210622773,4.424874834754539,4.424874834754539,12.25625147423679,11.821618725800558,4.368948941435741,4.374873493591402,4.376208399312073,4.386052662605983,4.324932953947704,4.354984643407243,5.125197696480809,5.39642494375633,4.382060032230802,4.318544280083809,4.441029218476008,4.437272588702252,4.444513394511563,4.441081040993416,5.06694765092494,5.407312570812179,4.3688084794788375,4.374853566395693,4.375568271678231,4.385574463544698,4.324415312389364,4.356723960069083,5.200752598820065,5.383189312949431,4.382509234189219,4.31875993963288,4.441233069200489,4.437441455633038,4.444774153694018,4.444669870408549,5.074390594846375,5.386142744672812,4.317120021123809,4.335048272833961,4.3170571697034505,4.333977161773562,4.3170652918231145,4.348466064949156,5.074332752412535,5.464894215573148,4.358601292912723,4.360845462918522,4.360234508164494,4.363803459462811,4.367741400296537,4.367741400296537
GRAPEVINE_LeafTraits,LMA_spxyG70_30_byCultivar_ASD,0.3040285089519362,0.3032142789905723,0.314806475847958,0.3192377617022927,0.3033852766131881,0.3032142789905723,0.3192377617022927,0.3098774365028794,0.3099387942566557,0.3204417855658107,0.3084632160174452,0.3115518940069768,0.3040285089519362,0.3098774365028773,0.3040285089519362,0.3084674661505063,0.306557034293252,0.3042137031517866,0.3042137031517866,0.3240428733973912,0.3075191522653666,0.3061951345435835,0.3065746445035593,0.3078912599228086,0.4595030626516424,0.5818535580738999,0.4880529029716396,0.3096056287973204,0.3102939539038506,0.5598292140117909,0.7899358732083801,0.7854564001772175,0.3177031876622876,0.7740953809951939,0.7740953809951939,0.7818080343317108,0.7818080343317108,0.7740953809951939,0.7740953809951939,0.774095380995194,0.3129748096898685,0.307346873715306,0.3252832739263925,0.3129748096898685,0.30855349923052,0.3036536968437875,0.5574706134767418,0.3125373474036716,0.3099387942566558,1.1231689119220674,1.0416137512652812,1.0448282764862524,1.0406213271414428,1.043752474583651,1.0405539636360084,1.0457696897967097,1.0456738352895438,1.0444799261574498,1.042017732268791,1.0419982661588196,1.042146724926692,1.0420343173860518,1.0420631221996486,1.0419748804633866,1.099556232883869,1.1009292690300456,1.0418195525503728,1.041470291380253,1.0421543928262615,1.0421763665992525,1.0420583712622846,1.0421103467935495,1.042193694925834,1.047867394937245,1.0414982030141908,1.0413134593535842,1.0415112229854386,1.0413447920220424,1.0413731176580363,1.0419572443796328,1.0541274889781862,1.0540559918351566,0.7753745653471171,0.7753745653471171,0.7738868520813694,0.7738868520813694,0.7749801946030128,0.7749801946030128,0.3030997913684949,0.3058027313990327,0.5598292140117908,0.5598292140117908,0.5598292140117909,0.5598292140117909,0.5611717733552315,0.5611717733552315,0.3096056287973204,0.3102939539038506,0.7764362939310304,0.7764362939310304,0.7745620951164611,0.7745620951164611,0.7754094473505875,0.7754094473505875,0.3036536968437875,0.3039914366057921,0.5574706134767414,0.5574706134767413,0.5574706134767418,0.5574706134767418,0.5574706134767416,0.5574706134767416,0.307346873715306,0.30855349923052,0.7183531720721629,0.7183748481264214,0.7168672004605782,0.7168664769129094,0.7161065375129112,0.7160930407998646,0.3042137031517866,0.3113288953725439,0.7989731034088312,0.7989731034088312,0.7899358732083801,0.7854564001772175,0.7923329192882194,0.7923329192882194
GRAPEVINE_LeafTraits,WUEinst_spxyG70_30_byCultivar_MicroNIR_NeoSpectra,1.5594523164359233,1.4155459406423567,1.589619323993804,1.4097840847594956,1.845046704201709,1.4360684849205956,1.4030141720263911,1.7609425297162018,1.5559010794745662,1.6000889811215513,1.7478850567169264,1.9708906192497533,1.5689519009133872,1.7609425297162011,1.6156294495131889,1.6156294495131889,1.5624539916638125,1.311399393762144,1.391796307735008,1.448725084603436,1.3851426727664744,1.5636099423725154,1.898905750458013,1.8927131284833083,2.3140602651726843,1.6042683612412882,1.661645448889043,2.1094886015892818,1.9842425650677205,1.816289058498309,1.7477118631901527,1.7477118631901527,1.4576145661742068,1.7341190418834105,1.7341190418834105,1.7341190418834105,1.7341190418834105,1.7341190418834105,1.7341190418834105,1.7341190418834105,1.639038285465857,2.105269166234936,1.6029642903740318,1.5133026650007424,1.9927807045559225,1.4751460396850986,1.8156368901157336,1.9425809663077729,1.5559010794745658,11.42082345268236,1.7669856364507175,1.766981650138009,1.766985554969711,1.7669594881666897,1.7669839210326594,1.766977773870423,3.221783097957843,4.6976462887127095,1.7656461815066924,1.7656254005562668,1.7656581296015843,1.7656475802303429,1.7656634384508691,1.765657105815819,3.898816953113434,7.529985232725991,1.7651088410743128,1.7638915544800702,1.765267971310463,1.7653576986140929,1.7652663124291643,1.7653529161133463,1.7651453298209814,1.7628840782631836,1.7655838217262678,1.768603763459566,1.7657483420886335,1.7681469958159917,1.7657197361906174,1.7663625508420635,1.7641454618215828,1.7666086073943528,1.7863770965138772,1.808544374645512,1.7687394950823232,1.7729916087829145,1.768431832486539,1.742519108976896,1.9682561159555725,2.091841677896118,1.837410468782328,1.8409262806478344,1.813609161227278,1.816289058498309,1.8090790332193971,1.8078914766167429,2.1094886015892818,1.9842425650677205,1.786471640040897,1.8085769615428495,1.7687807344456028,1.7731501480655896,1.768287685979573,1.7413725651347196,1.964130459875072,2.088640672683771,1.8368096367222184,1.8406059888897228,1.813319645333306,1.8156368901157336,1.808844312192288,1.8073999388321815,2.105269166234936,1.9927807045559225,1.7322652861148635,1.715154596998925,1.7388847419001572,1.761818607562439,1.7277349535674698,1.7296953406661204,1.580614998512765,1.6407506428010783,1.733671553514442,1.7550093506825788,1.7477118631901527,1.7477118631901527,1.7346205045268472,1.737145087624199
IncombustibleMaterial,TIC_spxy70,3.788055843147295,3.7127173960446944,3.7127173960446944,4.768429523581213,4.00865812201359,3.7127173960446944,4.897636762212527,2.950062010529332,3.092131547331423,2.948120757463263,4.082664955955707,3.598210810939975,3.70381483028591,3.060554269812682,3.5982168413879525,3.014891284972755,3.697718775126764,3.697718775126764,3.697718775126764,3.697718775126764,3.846858931964584,2.982131069729971,3.8706161701686073,3.9776910531886727,4.125747085329214,3.4568022877114566,3.804225996848561,3.912322907557317,3.7403191148204464,6.604957294373925,5.521071901035189,5.43945686290914,3.9911518618136697,4.557233478115758,4.557233478115758,6.517886074456363,6.517886074456363,4.557233478115758,4.557233478115758,4.554751601351778,4.290463071318403,3.8677081338308192,4.290463071318403,4.17196895079328,3.2476080067583992,3.2968834109902265,6.5554878295587615,4.179385991122897,3.0921315473314235,9.156374229389629,7.417008917558254,7.414315731931521,7.007648328314658,7.007677311226131,6.993446169724603,6.993754555960633,50.17483254005944,23.728770115573177,8.162117036243425,8.192327481912177,8.23841742938409,8.368675077341992,8.120076862925112,8.341188723504565,26.11352885744414,36.2682321752425,6.80358450959687,6.803605083822363,6.803391722791018,6.803393218229114,6.803373604805601,6.803223276962546,7.528085812590518,6.766160560529673,6.803729841269241,6.80374055800283,6.803741719104837,6.803741527674289,6.803744751101961,6.803744682162576,9.815787647852783,9.850452426589628,6.277558033267048,6.556852249350424,6.308483656470977,6.527672545817845,6.434168159176199,6.433019863176226,3.290819039872676,3.7623059900851263,6.621403779449227,6.621628884985283,6.604656934038631,6.604957294373925,6.604769723352694,6.605071927664429,3.912322907557317,3.7403191148204464,6.274634293706842,6.520155747409854,6.389681084491367,6.49675914729933,6.372367473245718,6.533235348143153,5.253637742386712,5.03920183327123,6.53714651607062,6.537510060072925,6.519934834348117,6.5554878295587615,6.519596241880635,6.520046769811925,3.8677081338308192,3.2476080067583992,6.547236328627687,6.276818611207381,6.204531697590987,6.640106311585302,6.406885224778699,6.406885224778699,3.305326373264407,3.413166649781505,5.074659233067387,6.428702710854896,5.521071901035189,5.43945686290914,5.360848758652208,5.38261489913117
LUCAS,LUCAS_SOC_Cropland_8731_NocitaKS,4.886152291677541,4.886152291677541,5.120599081061821,5.120599081061821,4.886152291677541,4.886152291677541,5.120599081061821,4.886152291677484,5.186874935549919,5.120599081061821,4.916851604393122,4.982404111758136,4.887526524373024,4.887526524373024,4.88659794253554,4.916851604393229,5.322094815683736,5.322094815683736,5.322094815683736,5.516186654966037,5.322094815683736,5.322094815683736,5.088449209663287,5.085866475908115,5.34911013541259,5.666497616832453,5.7189692029831525,5.051067148156326,5.178527502905829,7.240618619698728,7.233211795385353,7.220749918249209,5.35964769022926,7.112324889912621,7.112324889912621,7.093686573583439,7.093686573583439,7.112324889912621,7.112324889912621,7.1123248899126255,5.11386636072874,5.083502794380522,5.115342579555608,5.11386636072874,5.368580261204412,5.637224649198433,7.198855917647606,5.361525981199574,5.186874935549894,33.94154152044711,7.851019459464507,7.851001872903009,7.853926549673515,7.851972482278091,7.850742940337622,7.852552767699233,7.855731128286529,7.8631081609571964,7.854722963230405,7.854870946393617,7.854695092833004,7.854831778450661,7.854610012719987,7.854621437037013,7.857759702616442,7.857675000506234,7.856569905793381,7.856581698472828,7.856797496006001,7.856651377954111,7.858740174906502,7.858961530397585,7.857010936895609,7.856890270741333,7.858444163309734,7.858443222988524,7.858443966276687,7.858442914286352,7.85906537314808,7.859249741858462,7.861596834746681,7.86074468389099,7.441633139110487,7.442201045527837,7.441187016565841,7.4415008072223,7.4214766962619585,7.4214766962619585,5.577393734640917,5.426743470708338,7.271448852820086,7.271448852820086,7.240618619698728,7.240618619698728,7.240692414620144,7.240750871879017,5.051067148156326,5.178527502905829,7.362027340310095,7.362027340310095,7.368828708327207,7.368828708327207,7.36584195677784,7.36584195677784,5.543619329282942,5.5177726822369255,7.198855917647606,7.198855917647606,7.198855917647606,7.198855917647606,7.198855917647607,7.198855917647607,5.083502794380522,5.368580261204412,8.416841727490265,8.416841727490265,8.403491244283325,8.403491244283325,8.386055889852491,8.386301756080845,5.320604904639847,5.449986153732855,7.233178654762572,7.278788736299452,7.233211795385353,7.220749918249209,7.210238933233652,7.215455436112587
LUCAS,LUCAS_pH_Organic_1763_LiuRandomOrganic,0.4416696243147964,0.4416696243147964,0.4961981684312267,0.4961981684312267,0.4683217258034229,0.4416696243147964,0.4961981684312267,0.4683217258034163,0.4578914547887714,0.4671566793258091,0.4678338726154714,0.464596659484485,0.4412400921726097,0.4673668951096608,0.4438341526466796,0.4653770990478892,0.4643475179751221,0.4655609663459165,0.4643475179751221,0.493726236638934,0.4655609663459165,0.4731936400253375,0.4638586423138739,0.4636382604721885,0.5491333140927286,0.5594731704044085,0.5966592804605138,0.3890829242977446,0.3962913672482179,1.0612359200783972,1.1036682689192845,1.1036682689192845,0.5152297573011926,1.1124736391832324,1.1124736391832324,1.1124736391832324,1.1124736391832324,1.1124736391832324,1.1124736391832324,1.1124736391832324,0.38573626859797,0.3868209612903601,0.3965127535710834,0.38573626859797,0.3958642807003063,0.4105477624801252,1.0597760898219817,0.5150614496768777,0.4578914547887119,7.8647756912691955,1.111369832424,1.1113707708057166,1.1113615281470064,1.1113582259210253,1.111365945517961,1.1113646591609103,1.1191456509003797,1.1153383732082016,1.1133875986056827,1.113112502655939,1.1149547829825284,1.1153978683974004,1.1135467457686914,1.114154197493438,1.19461306539748,1.1198691792190576,1.1117916538779515,1.1121184011834069,1.1117662675596096,1.1140781796167691,1.1136806906220296,1.1141144971930053,1.111582683718617,1.1116372311391214,1.1133281813207865,1.1133281813207865,1.1133281813207865,1.1133281813207865,1.1126093189648856,1.1124943339201672,1.1228964430408972,1.1064720384704865,0.8047393582626352,0.8047393582626352,0.8047393582626368,0.8047393582626368,0.8047393582626359,0.8047393582626359,0.4076566601557876,0.4121448724827837,1.060845082731568,1.060845082731568,1.0612359200783972,1.0612359200783972,1.0580220160858722,1.0580220160858722,0.3890829242977446,0.3962913672482179,0.8047712710219325,0.8047712710219325,0.8047712710219349,0.8047712710219349,0.8047712710219326,0.8047712710219326,0.4090011793410598,0.4132260065707789,1.0591397634567112,1.0591397634567112,1.0597760898219817,1.0597760898219817,1.0563411922814931,1.0563411922814931,0.3868209612903601,0.3958642807003063,1.03133539958529,1.032577871286841,1.031682470860542,1.0472632550621492,1.031682470860542,1.0321909326171756,0.468828452010628,0.4731936400253375,1.1047725886990722,1.1048417456737083,1.1036682689192845,1.1036682689192845,1.103226036856382,1.103226036856382
MALARIA,Malaria_Oocist_333_Maia,7930.904001931568,7930.904001931568,7953.722591100652,7953.722591100652,10681.741996844718,7930.904001931568,7953.722591100652,8634.838632348137,8634.717302626463,7953.722591100652,8634.838632348146,8772.700340149146,7931.832365109506,10114.137788657295,7930.904001931568,9193.25014249618,7892.168943164892,7892.168943164892,7892.168943164892,7909.723698435564,7901.490513900655,7889.318529088604,8421.809846158898,8342.030806755025,8478.757584165074,8325.696749116807,8234.3991399544,8472.680379034544,8472.680379034535,7801.336465114307,7951.745314171651,7941.744041173338,7953.722591100652,8101.175506584578,8101.175506584578,7930.904001931568,7930.904001931568,8101.175506584578,8101.175506584578,8101.175506584576,7760.462965723325,8250.795552944859,7765.729631963068,7760.462965723325,8252.631914878455,8286.734934849637,7823.069751260037,9633.06071274728,8634.717302626466,48854.85902071287,7843.071814315022,7842.759794839,7844.0010162111475,7843.92676757465,7843.8179391588765,7843.744466213385,7841.436907361294,7840.913972875164,7791.389585854382,7787.52496654159,7797.562744803755,7786.881505770525,7798.291975489261,7794.99147884045,7791.3510337201715,7790.61037027214,7745.001548477328,7733.948696312698,7734.675508543666,7733.901064219816,7735.214461987714,7732.99456416378,7739.83387098158,7733.638668299348,7745.545597288747,7745.545597288747,7741.616141867036,7741.664930944977,7745.628964336895,7746.553907343363,7746.491905579741,7745.767993933021,8773.971657301485,8741.351207790172,8705.28461910947,8661.825026476254,8870.027556859091,8898.836632155086,8088.07434834148,8088.074348341477,7830.692863592368,7795.733316309606,7833.526034693902,7801.336465114307,7853.696439298396,7789.412697596045,8472.680379034544,8472.680379034535,8268.18435329087,8255.325368671016,8222.154646469615,8209.558856966223,8274.909422583354,8282.08486682126,8091.798054367693,8127.137732821793,7856.057910143253,7823.814256066388,7854.37421053969,7823.069751260037,7842.023066695069,7793.861532680306,8250.795552944859,8252.631914878455,8038.011147614522,8023.553130118897,8027.292663984997,7966.153246118123,8033.516385175188,8101.483719366115,8256.954524287685,8256.95452428768,7946.598881512694,7946.18146201141,7951.745314171651,7941.744041173338,7952.167895118968,7959.628746647032
MALARIA,Malaria_Sporozoite_229_Maia,33811.329675840665,33811.329675840665,34046.17728593695,34046.17728593695,35708.53878553114,33930.96079364952,34046.17728593695,34317.06383479275,35459.12504496326,34046.17728593695,33975.9118754933,35344.80563503642,33811.329675840665,34317.06383479272,33811.329675840665,33956.91299938944,33702.37703438236,34084.86211163086,34034.132987776655,33965.14005957723,33702.37703438236,34427.53074824441,34651.79461669505,34553.56594059344,35067.28529985596,36632.11002334016,35970.01242250006,34904.14377060782,34150.46987648045,33928.16134732926,34046.713937708606,34046.57973212318,34187.77637020566,33934.39483016067,33934.39483016067,34004.92415268454,34004.92415268454,33934.39483016067,33934.39483016067,34119.494311564005,35697.83868480956,35588.28544741932,34079.92191061139,33954.32849367002,34635.52322135693,34296.320061949,34144.76725329338,35631.91749414301,35459.12504496321,158707.41522539256,36661.06785041489,36661.19282251677,36661.09101835874,36669.36889365877,36661.52227251216,36665.06304871654,38225.13387671765,37643.951536098895,36512.51477498633,36466.8471833538,36516.20209426762,36467.28154811312,36537.91296458369,36490.80641207066,37966.28977122751,37966.28977122751,34122.38955258096,34129.155277561,34586.098380750336,34129.00678633037,34845.34936872858,34486.546676715385,36361.132080303854,38442.8622729736,33843.39952809566,33834.3889400839,33809.7071150014,33777.14986098253,33820.79533037868,33794.50809699978,36126.39204002257,34213.73116095863,33938.768329835795,33938.91721195661,33912.56691314091,33913.06099152897,33917.75130255104,33944.53863940645,36842.61074204297,36314.3893680426,33968.87853502918,34007.50067857995,33943.79457715368,33928.16134732926,33932.15303178947,33914.92721706697,34904.14377060782,34150.46987648045,33991.813728274115,33992.4506330794,33925.05134990184,33925.25194891001,33920.399187684496,33977.29077227189,36361.15692890299,36461.8962738269,34081.41685713733,34172.28407204965,34043.20375116514,34144.76725329338,34080.83602918981,34076.33444950707,35588.28544741932,34635.52322135693,33953.051077013595,33951.76111338783,33959.932850191384,33959.932850191384,33959.59438169207,33959.59438169207,34308.2113361994,35538.94411233071,34045.061603679686,34044.728374520535,34046.713937708606,34046.57973212318,34047.24292365395,34116.109307232946
MANURE21,All_manure_CaO_SPXY_strat_Manure_type,7.956708483305158,8.24841476875877,8.21535516288557,8.480997190768543,11.644581240731773,7.956708483305158,7.945259608880703,7.72034597558796,7.689144687644411,8.622393761538085,7.741062906971687,7.556228457567122,7.985767249607535,7.734003573596195,7.629385118910542,7.689144687644411,7.602388101928504,7.235524415543641,7.3435968168757375,8.223398747608359,7.859148413749101,8.19563531224081,9.830255411034646,9.685367076678686,8.38805714972203,8.360229412948552,8.075678244730788,8.276805103282088,7.84251411814111,10.02981694895369,12.78288992640672,12.407825536538333,8.735720415945678,13.169697665026252,13.169697665026252,12.782866826748444,12.782866826748444,13.169697665026252,13.169697665026252,13.169697665026252,7.932251673002561,7.501335895093815,8.080910539436209,8.104501106149131,7.269279493617364,7.607632911414243,10.0300519720197,8.051895365182393,7.689144687644491,40.137911401886846,13.156215123644738,13.16424222684115,13.15768519983536,13.175984175473392,13.15322463937122,13.1658129118482,23.700332433941668,23.700332433941668,13.182692724577947,13.182692724577947,13.175700454102492,13.174107333871154,13.15769842400726,13.153356252069406,13.588717141616575,13.588717141616575,13.227191173375209,13.231964217772326,13.22693253182822,13.231510228855896,13.226939605460228,13.230872332742075,17.594545433251067,14.685076697738207,13.222870812828113,13.222870812828113,13.22252639149296,13.22254086532882,13.222525732893448,13.222527769695697,14.23021462669833,15.239590428065428,11.643593751691856,11.643593751691856,11.465910756102785,11.43299963262757,11.801858433259058,11.801858433259058,8.76820859685158,8.210727714192345,10.036592565212215,10.01367419885924,10.036995952410496,10.02981694895369,10.03564676691254,10.029208619148404,8.276805103282088,7.84251411814111,12.19403255362172,12.19403255362172,12.211080367808004,12.211080367808004,12.26796917429779,12.26796917429779,7.854674950483975,7.829242840681352,10.009441227904794,10.009441227904794,10.0300519720197,10.0300519720197,9.9850300775245,9.98478579199217,7.501335895093815,7.269279493617364,12.155184458913828,12.143521748949745,12.093580405700108,12.093580405700108,12.089338213213402,12.089338213213402,8.405618656338351,8.494239072353277,12.782770851017183,11.967346221256282,12.78288992640672,12.407825536538333,12.73829964467982,12.57342575902636
MANURE21,All_manure_K2O_SPXY_strat_Manure_type,2.5187208477569105,2.485597872909592,2.618856310046643,2.695390977552789,3.613651981310409,2.485597872909592,2.5716463243851333,2.6085397917966677,2.506858594170727,2.412466372916033,2.5539229527549083,2.397313918206069,2.659687634386324,2.682676328466274,2.3732907931485108,2.553922952754928,2.267624180397946,2.2907590514339287,2.2907590514339287,2.267624180397946,2.4634795670364484,2.322232045761895,2.8383633489570235,2.8109182115740405,3.022005225577121,3.4892951104983463,2.96316556917085,2.707969454559082,2.7079538359284743,4.301740932207497,3.6888394499431048,3.6888394499431048,2.593980584929294,3.578248286581456,3.578248286581456,3.864222654477441,3.864222654477441,3.578248286581456,3.578248286581456,3.59252727638258,2.684298016411573,2.684298016411573,2.602183632350968,2.684298016411573,2.621673234739587,2.5958124862573744,4.019986706131942,2.5721798037679977,2.5068585941707413,9.500516949826624,6.369052198215475,6.369596628880807,6.369072493958487,6.515626772139005,6.432047602077166,6.450676576006646,94.74211976702532,97.71026643092264,6.450620019819741,6.450620019819741,6.487498268163431,6.487498268163431,6.415928234869392,6.416003805105509,188.8196743649469,235.0200033258336,6.240120329422021,6.240102342427318,6.240145428319,6.240145428319,6.240145428319,6.23950399649801,6.24012835311757,6.240119594559868,6.237106977051414,6.237043761979284,6.236935792129908,6.236611540005248,6.236840038659721,6.236839116767024,6.227454823940769,6.227454823940769,3.802340556479817,3.802340556479817,3.796555811221926,3.794497879164473,3.815823270447392,3.823329406173829,2.8162466266572626,2.528267521471136,4.309795265836073,4.311361456367501,4.313517956442467,4.301740932207497,4.340272648286958,4.370776141897506,2.707969454559082,2.7079538359284743,3.420749617209039,3.437216912021998,3.4221529586800683,3.4453198340912765,3.455745893598352,3.438338800785405,2.85843787644565,2.819555178800702,4.017806523036002,4.024862184193581,4.018431852902197,4.019986706131942,4.02364117326329,4.031958224998305,2.684298016411573,2.621673234739587,3.557272213386809,3.57931926465394,3.7110880829592334,3.684228014658276,3.7158807981326607,3.7421256765744,2.2907590514339287,2.283024420726686,3.6888394499431056,3.688422707508392,3.6888394499431048,3.6888394499431048,3.6582726936234553,3.670390568873421
MANURE21,All_manure_MgO_SPXY_strat_Manure_type,0.8038818165706888,0.7465822035673529,0.8722799008893388,0.9220418586300118,1.2522389458002772,0.7914811275013638,0.8722799008893388,0.7946789148284525,0.7168578848596983,0.8576500460277494,0.7268158855373635,0.7946789148284525,0.7981131551352406,0.7946789148284605,0.7496302537427638,0.726808772273078,0.7804626452849249,0.7804626452849249,0.7804626452849249,0.8897587506291655,0.87944646136286,0.7804626452849248,0.9458850335283312,0.9302343998568668,0.915316443204046,0.9726852546914966,0.9039323741505452,0.7483479961893034,0.7508654194026074,1.510957067370193,1.780355071540715,1.8470784796165665,0.7946789148284632,1.805172142483089,1.805172142483089,1.805172142483089,1.805172142483089,1.805172142483089,1.805172142483089,1.805172142483089,0.7754013927489892,0.7892642770749001,0.8029304964943994,0.7384119838475177,0.7349188963097685,0.7739014414570137,1.371738404049858,0.778600742606652,0.7168578848596966,3.521354326792668,2.3979149396358417,2.3981824234761007,2.393669487999302,2.393692198290468,2.3943654313971114,2.394842620819777,2.392697857616138,2.379750812400496,2.37767979137017,2.378965292450596,2.3807442792402163,2.382511671664153,2.379553998504005,2.379066146860067,2.3788857040694773,2.4216516316898185,2.384794705814046,2.383722491906125,2.382048517954963,2.382479138360619,2.3803370952198297,2.3826785589088004,2.8485064179003965,3.791646990135608,2.387062010122305,2.3882335284797165,2.3874468859193274,2.387442593829941,2.387779791929116,2.387999779529231,2.4026858350470937,2.412463403484774,1.6163178109289214,1.6200158710353347,1.6202103407845154,1.6201961448473658,1.6206597951288986,1.6203347649331934,0.7990642232549636,0.8102227911775024,1.5112469601552987,1.5111907654591004,1.5111252953420098,1.510957067370193,1.496857854986336,1.496857854986336,0.7483479961893034,0.7508654194026074,1.5140966741552695,1.5206735367796955,1.5246784755762162,1.524588404534727,1.524519330632729,1.5246819272371666,0.8379029199730118,0.7878046117665176,1.3719584320988014,1.371855983708573,1.3719027572661666,1.371738404049858,1.3640876658622898,1.3640876658622898,0.7892642770749001,0.7349188963097685,1.5135279459097633,1.5133763420656745,1.5134654997786865,1.513289034252885,1.5134958447007922,1.5133587288186494,0.8434094314473001,0.8434094314473001,1.780324827224421,1.775752419684739,1.780355071540715,1.8470784796165665,1.778761596786072,1.828350904573047
MANURE21,All_manure_P2O5_SPXY_strat_Manure_type,2.3347551228503023,2.484911312503799,2.415432856582086,2.396358233665589,3.535594067195741,2.5177757051268057,2.396358233665589,2.7062747301994072,2.7181724835994707,2.3358928693841707,2.7177027342932907,2.3450488133561005,2.510042532506392,2.7139103747227566,2.447988423023843,2.7181724835994707,2.444098417183936,2.6686562869736896,2.6686562869736896,2.4645682174602377,2.5495701415939536,2.318901754061266,3.219534721161406,3.1869248614426398,3.3631349861599213,3.491576022245632,3.2821215032312,2.789235205520499,3.086741578166765,4.949249365212321,5.961540697825384,6.095289902596893,2.3882032646623186,6.15569926738711,6.15569926738711,6.15569926738711,6.15569926738711,6.15569926738711,6.15569926738711,6.15569926738711,2.6920892400182845,2.7762949694804435,2.9564084204637124,2.6920892400182845,3.0526662943038487,2.8673519842277515,4.5617946158206335,2.6906261413191066,2.718172483599492,10.780141890550446,7.418107541030176,7.421551674974359,7.44103760977422,7.44103760977422,7.441534339856274,7.404769799825492,7.826461877948697,7.624103768276571,7.438565521759224,7.425833826452438,7.438703546986878,7.425416179192791,7.438293941410398,7.4360162008976065,9.990951128830767,9.459631329260482,7.359149733418172,7.359891693977625,7.3583822184213075,7.357950179080504,7.358196984886193,7.358302215754144,9.589211180019076,13.34069708680043,7.359322616768924,7.359382884400388,7.35923560137896,7.359228711419521,7.359286235891356,7.35925282477593,21.65600972380621,21.65600972380621,5.3388645352987245,5.304199466175703,5.301358076481529,5.305871308210527,5.350332304375571,5.310535057551227,2.6451741576194805,2.9429940843635896,4.94789546306251,4.946672148565634,4.949312894188084,4.949249365212321,4.929517794435596,4.929517794435596,2.789235205520499,3.086741578166765,5.280225228214376,5.252273992404424,5.194178937023852,5.193147334519556,5.173446095273111,5.170938402281728,2.980210563710804,2.983741592422172,4.560104844837028,4.557451700419102,4.562383816429903,4.5617946158206335,4.527199277856123,4.527199277856123,2.7762949694804435,3.0526662943038487,5.20637789988586,5.205750229595988,5.2189873255582535,5.215792301731178,5.221553839663242,5.2133017974869,2.660407679966359,2.6613393726038552,5.961540550721664,6.081968853627507,5.961540697825384,6.095289902596893,6.0040549372393,6.0040549372393
MANURE21,All_manure_Total_N_SPXY_strat_Manure_type,1.7288448293595216,1.7288448293595216,1.7879650929666462,1.7879650929666462,2.63095254237481,1.7288448293595216,1.7879650929666462,1.7313050242229395,1.7226059052206846,1.764622725161466,1.7198583470504396,1.6819595040654185,1.7633777325064646,1.7226059052206846,1.703360453226962,1.731305024222917,1.5485802707770282,1.56066938188002,1.56066938188002,1.6750594394491818,1.6513237996820036,1.5907997354560552,2.10578929325474,2.093141920755266,1.7702180414936244,2.1228472621650742,1.6768192939487885,1.8529775543800384,2.0337964875600725,4.287099987164727,4.018497850579845,4.0140744396469294,1.7433441566374508,3.29492573546039,3.29492573546039,4.067826985791897,4.067826985791897,3.29492573546039,3.29492573546039,3.203798521812651,1.8223257726407192,2.0052825480187804,1.8236384772941687,1.8236384772941687,1.994575170333642,1.7641428634881262,3.713350855672372,1.7742537535867973,1.7226059052206817,8.8130185058794,7.173085695210199,7.173085695210199,7.172918638843961,7.172918638843961,7.1728844287587386,7.172891766852978,7.103814578906165,7.135649054046637,7.168372602730196,7.168298908806167,7.1667591482791,7.166807825568281,7.16700641647538,7.167426083809373,7.177588883489356,7.24164488905404,7.159162780932468,7.159858594970556,7.159061943406463,7.159005880463926,7.159138257590771,7.159827665949329,7.753452780816869,19.40796507654706,7.166530044962727,7.163838421086962,7.165004207815187,7.164028424681271,7.164558369040375,7.163815941726903,10.560783383552169,10.499665912304604,3.83993095784914,3.842864987246135,3.840612594036688,3.8436222017850974,3.8402634868499854,3.8427094289523778,1.8926739755202568,2.041978890340388,4.288675874687042,4.290787212829775,4.287099987164727,4.287099987164727,4.293239062862286,4.292880883228591,1.8529775543800384,2.0337964875600725,3.122737167349407,3.1247561679492097,3.1236980287780143,3.126015367752313,3.123645549104733,3.125774142992792,1.8931098556276704,1.9304012251337244,3.756211259912767,3.756328736496545,3.713350855672372,3.713350855672372,3.7545147271911112,3.753157180447584,2.0052825480187804,1.994575170333642,3.240434028339397,3.270094077732203,3.2396836326845677,3.2374822738404503,3.2400846070785696,3.2404139062747475,1.6128639580099378,1.7125651948114282,4.018497850579845,4.028473671451243,4.018497850579845,4.0140744396469294,4.015279817906605,4.12612976260701
MILK,Milk_Fat_1224_KS,0.0948251785233808,0.0948251785233808,0.1322330893703592,0.1322330893703592,0.0960959042875567,0.0948251785233808,0.1143728322250905,0.1102797481836828,0.1088748356704677,0.1092513464588808,0.1146181064322986,0.1080922122023569,0.0948251785233808,0.1102797481836823,0.0948251785233808,0.1147503933786207,0.0919734915976879,0.0926868587859671,0.0926868587859671,0.1111307609863663,0.0919734915976879,0.095056148461258,0.0949496251450458,0.095767529259159,0.1063567278724561,0.0909502470961486,0.0977299329088413,0.0806139841995143,0.0795029794729527,0.3545062179610622,0.4148510969964272,0.4194527631585566,0.1011945659801014,0.4511898778779377,0.1870534559748103,0.4511898778779377,0.4511898778779377,0.1066433407999539,0.1066433407999539,0.1543575947361076,0.0797133717363083,0.0777117948384832,0.0978121128271019,0.0826314420089051,0.0777117948384832,0.0889322232217998,0.3512043668528131,0.094442190510511,0.1088748356704669,0.5002260183234936,0.9353581634902898,0.970745642393506,0.9833254883349968,0.9273472698748048,0.949859831807306,0.9265014647648232,13.080358032767291,5.358472518652397,0.9620024258150226,0.962163829678868,0.9618659299960076,0.950380720613066,0.961033372190808,0.9528600448694592,8.682675911530476,8.314295834190066,0.8652341006226791,0.8652341006226791,0.8714700873637683,0.866338861307296,0.8672023901956374,0.8653709058272034,1.5818620473082488,1.9192533230835156,0.8475056628079195,0.8469637876770723,0.8466893344184893,0.8468118822102272,0.8468770598639088,0.8468019582018993,1.5107909529495172,1.5107909529495172,0.3384255669577644,0.3390221542854583,0.3345402124237246,0.3519297818234129,0.3346230021677381,0.3383274301365825,0.0780664001654266,0.0789760639326841,0.3350908174998234,0.3394134764743037,0.3397689667145951,0.3545062179610622,0.3341174683007399,0.3434001871633096,0.0806139841995143,0.0795029794729527,0.3363444926584182,0.3398962253068486,0.3333435735761439,0.3516265012570808,0.3334244026954026,0.3300928368827034,0.078590572569274,0.0865098107526525,0.3327982604739881,0.3395395255513064,0.3381620927423087,0.3512043668528131,0.3323817003775347,0.3323817003775346,0.0777117948384832,0.0777117948384832,0.3974509878479653,0.3984450497604868,0.3971984069988416,0.3986414857834161,0.3972052247597505,0.3983298259667083,0.0984003071224903,0.1000988062400358,0.4152206902555264,0.4180925157662963,0.4148510969964272,0.4194527631585566,0.4148582278023376,0.4154936472025798
MILK,Milk_Lactose_1224_KS,0.0573534985266922,0.0573534985266922,0.0659803526082826,0.0614171981695876,0.0588361629987972,0.0573534985266922,0.0614171981695876,0.0568684909881534,0.0579541920544823,0.0614171981695876,0.0570604247067402,0.0704014373453278,0.0568684909881382,0.0568684909881382,0.0593758872776102,0.0592520617325704,0.0582191566341861,0.0582191566341861,0.0582191566341861,0.0630883874451917,0.0579269191501443,0.0593391793549758,0.0585675932333016,0.058313278921877,0.0859239587286754,0.1351170525820983,0.0864601241585767,0.0593287345566036,0.0560960597112178,0.1608380166296689,0.1613982600487445,0.1613782042248627,0.0588361629987956,0.1618783300271523,0.1618783300271523,0.1618783300271523,0.1618783300271523,0.1618783300271523,0.1618783300271523,0.1618783300271523,0.0580864938195515,0.0580864938195515,0.0606855207483259,0.0580864938195515,0.0565498135895702,0.0587494253139075,0.1608312634934497,0.0601645882212601,0.0579541920544847,0.5649461939063252,0.1649528201828229,0.1649659039294057,0.1649538350072209,0.1649564800658796,0.1649550887197879,0.1649851185393687,0.1653766492872258,0.1646905891267708,0.1650164160858758,0.1650264771736952,0.1650142257651929,0.1650234288010465,0.1650082407187292,0.165011968934835,0.1651398748793835,0.1834598918988113,0.1654109602112617,0.1647182399829279,0.1661257949879617,0.1664474011339418,0.1660921115969127,0.166347001075188,0.4091136095717789,0.2313575243156048,0.1691518628714856,0.1686062269998674,0.169125581458691,0.168541560324838,0.1689232481839496,0.1690605248915619,0.6339089672598296,0.8339857083235153,0.1611451886822458,0.1611488253602937,0.1611523964830575,0.1611571376387491,0.1611779995737518,0.1611736400631954,0.0585355711339671,0.0561080136511315,0.1608399287569814,0.1608411107018747,0.1608268629691536,0.1608380166296689,0.160832322009419,0.1608390392845161,0.0593287345566036,0.0560960597112178,0.1611182090334496,0.1611221988616125,0.1611510376398549,0.1611303190009272,0.1611423152209696,0.1611427180244047,0.0587494253139075,0.0611064486778604,0.1608377678307754,0.1608379315597468,0.1608212073120849,0.1608312634934497,0.1608239829267871,0.1608288533669628,0.0580864938195515,0.0565498135895702,0.1616551197027811,0.1616390278782236,0.1616674868642118,0.1616534340569431,0.1616625357170981,0.1616634994355337,0.0579269191501443,0.0607114134667052,0.1613548524624711,0.1613563409215592,0.1613982600487445,0.1613782042248627,0.1613805085030612,0.1613825371972839
MILK,Milk_Urea_1224_KS,4.197357980537094,4.197357980537094,4.233005847814509,4.233005847814509,4.410214962452071,4.197357980537094,4.233005847814509,4.181714113729996,4.252640828548336,4.2223325549780295,4.181714113729996,4.310629195308152,4.197357980537094,4.216280087340131,4.197357980537094,4.1817141137302505,4.234870426949205,4.234870426949205,4.234870426949205,4.249565744451436,4.234870426949205,4.234870426949205,4.390157990267636,4.429873739191238,4.694957903364782,4.53825777981878,4.614564405479593,4.220471563882716,4.25948638992065,5.170934225700713,5.185963333364344,5.187913986401497,4.410214962452098,5.179991990142263,5.179991990142263,5.179991990142263,5.179991990142263,5.179991990142263,5.179991990142263,5.179991990142262,4.224068711109451,4.242611222291897,4.209126777401588,4.209126777401588,4.26973907155695,4.203651601757077,5.170913262287858,4.400887922915212,4.25264082854829,30.4843582433548,5.151122783553462,5.150717374667535,5.152616798164788,5.152513416192882,5.152639436589355,5.152425367284827,5.151696000410914,5.193030441092151,5.15147556822069,5.151783552762628,5.151477013369499,5.151772799783623,5.151979766660125,5.1524749396100455,5.15466101238972,5.152264083762071,5.151172753373179,5.152553247289913,5.150228924912352,5.152513355077919,5.150441591230974,5.150598023952202,5.162335294290607,5.162335294290607,5.144023121424149,5.144683407742848,5.144062233573798,5.144025583250539,5.144196418285442,5.144180995353483,5.161700786586209,5.1600046864352205,5.174248219401552,5.174333631300671,5.173635323359466,5.172035958257176,5.173916825372207,5.17288882822711,4.19000525555967,4.276706616848528,5.176731302301286,5.176754680295732,5.175475151302385,5.170934225700713,5.17616799260517,5.175378010009674,4.220471563882716,4.25948638992065,5.174403041054435,5.17448111624057,5.173676530490167,5.17225089458564,5.17407334325226,5.17373511450266,4.2081667840919295,4.272965763804075,5.176838995943543,5.17674118012917,5.175609515454152,5.170913262287858,5.176203508554614,5.174759882840545,4.242611222291897,4.26973907155695,5.184680984826107,5.184116866222048,5.184588939513061,5.184255568605663,5.183784171798288,5.184004112992409,4.23783330667861,4.2439178625648335,5.187516135675456,5.188123273875874,5.185963333364344,5.187913986401497,5.185880585100692,5.1870186475563145
PEACH,Brix_spxy70,1.4204672370620972,1.7489561606731527,0.9646821714787392,1.07173882650297,2.0181761646619942,1.0017970709166777,1.074982534544758,2.0181761646620657,2.018176164662046,0.8781333970109643,2.0181761646620657,1.452654777932852,1.4204672370620972,2.0181761646619942,1.4222837134215582,2.0181761646619942,0.877210263357179,0.9862896201110516,0.9862896201110516,0.9722356737260496,0.877210263357179,0.877210263357179,2.0415227991250893,2.0415227991250893,2.177075748396245,0.8933272371050937,1.0724533878941551,1.7591400699294957,1.7591400699294983,1.8374923632979303,1.776814470112515,1.7770558513473294,1.7103507371910391,0.9997324200877462,0.9997324200877462,1.4578726825652086,1.4578726825652086,0.9997324200877462,0.9997324200877462,0.999732420087685,1.0911822342388668,1.8904020611203485,0.9509262555300256,1.1472056103863495,1.8904020611203485,1.2052076955230504,1.8376903325479363,1.961458415156773,2.0181761646620417,19.220042144340468,1.693300442252219,1.6934712642944898,1.6903203187544755,1.690722177562513,1.691261403986592,1.691381673237672,1.6970676361327637,1.6970676361327637,1.7078217301370937,1.7078217301370937,1.7080309960831843,1.7308444265274263,1.7079850162695611,1.726342626724834,1.7080445031122735,1.7080445031122735,1.7455490426846718,1.7395761505236402,1.7467837175113383,1.7415430978890476,1.7467779906812613,1.743423410397077,3.7986430058932976,3.6523056657410247,1.7441928430280516,1.7441928430280516,1.7440838787993436,1.7440838787993436,1.738299206147108,1.737175333059176,3.529316775019644,4.591564580029513,1.8238844520439264,1.8238844520439264,1.8192734742932828,1.8192734742932828,1.8199938361818329,1.8199938361818329,1.974857375950203,1.874842949463491,1.8375408976351213,1.837555980681916,1.8374869072183333,1.8374923632979303,1.8373061546444571,1.8371916931968104,1.7591400699294957,1.7591400699294983,1.8235153246896327,1.8235153246896327,1.81882483128778,1.81882483128778,1.819514641983106,1.819514641983106,1.9838418448868476,1.8876016029765776,1.8372327316135757,1.837240507726575,1.8376903325479363,1.8376903325479363,1.8363659445452327,1.8363659445452327,1.8904020611203485,1.8904020611203485,1.773100637118422,1.774573893877328,1.7723829240181956,1.7733376207133489,1.772328744498075,1.7735867102975118,2.043191525455269,2.466621528362068,1.776821939146781,1.7742805935116963,1.776814470112515,1.7770558513473294,1.7768120201590292,1.7773954085136106
PHOSPHORUS,LP_spxyG,0.1740227048545429,0.170506818766177,0.1547081398747242,0.1698633709337957,0.170506818766177,0.1709036555421458,0.1698633709337957,0.1728182123039681,0.1728182123039682,0.1747558005631269,0.1713549158271547,0.1726221372879579,0.1675785126866648,0.1728182123039682,0.1763570130225637,0.1728182123039682,0.1786778263982131,0.164560802119294,0.1786778263982131,0.1796139689320273,0.1786778263982131,0.1786778263982131,0.1699336305789882,0.1692025353378603,0.1549883680277876,0.1892349155385739,0.1812812365403841,0.1726661382002968,0.1726661382002956,0.1620793591339539,0.1976101134818079,0.2068626877822362,0.1911881161616511,0.1873916403215897,0.1873916403215897,0.2004512001720939,0.2004512001720939,0.1873916403215897,0.1873916403215897,0.1873916403215897,0.1720114283649913,0.1692678440752197,0.1729429754423626,0.1849468237769333,0.1692678440752178,0.1774079260705689,0.1608729505765948,0.1885730868279003,0.1728182123039682,0.4664124640800067,0.2063277950913933,0.2071089419249228,0.2063278348317221,0.2072673129349386,0.2063278274820214,0.2070296303379774,0.2712224961915588,0.2082655771606331,0.2062610771398704,0.2062610260583358,0.20625864874049,0.2062699925038039,0.206259325426648,0.2062842397277945,0.2058379202758898,0.2058379202758898,0.3303244670019424,0.3043268343900422,0.2201951407194858,0.239959085308428,0.2201800826138124,0.384143897209154,3.2455354865970216,1.7694501582046285,0.3775181965750423,0.3918006313018885,0.3798949625277379,0.3930491710840244,0.386060693910812,0.4039485429321707,0.3350296065232781,0.679808019233872,0.1584735025662425,0.1584811589876198,0.1584736566240078,0.1584736566240078,0.1584737967143094,0.1640618557950403,0.1661075757014054,0.1645107141212148,0.1618972192983608,0.1618972192983608,0.1620793591339539,0.1620793591339539,0.1695738702056894,0.1695549848577163,0.1726661382002968,0.1726661382002956,0.1551236842539867,0.1551285625392652,0.1551238499420047,0.1551290940299515,0.1551239652108558,0.1621223203848826,0.16429446640519,0.1661186092740614,0.1607775764421951,0.1607775764421951,0.1608729505765948,0.1608729505765948,0.1681811695419183,0.1681675327608442,0.1692678440752197,0.1692678440752178,0.1874377509453736,0.1874324758124428,0.1876992191292426,0.1876983446530858,0.1877147202162421,0.1877159022170598,0.1653638548071646,0.1625237318849589,0.1987486897297914,0.2060809144056576,0.1976101134818079,0.2068626877822362,0.206891963450409,0.2051474466471611
