9090;9049;9008;8968;8927;8887;8848;8809;8770;8731;8693;8655;8618;8581;8544;8507;8471;8435;8400;8364;8329;8295;8260;8226;8192;8159;8125;8092;8059;8027;7995;7963;7931;7899;7868;7837;7806;7776;7746;7716;7686;7656;7627;7598;7569;7540;7512;7484;7455;7428;7400;7373;7345;7318;7292;7265;7238;7212;7186;7160;7135;7109;7084;7059;7034;7009;6984;6960;6936;6912;6888;6864;6840;6817;6794;6771;6748;6725;6702;6680;6657;6635;6613;6591;6569;6548;6526;6505;6484;6463;6442;6421;6400;6380;6359;6339;6319;6299;6279;6259;6240;6220;6201;6182;6162;6143;6124;6106;6087;6068;6050;6032;6013;5995;5977;5959;5942;5924;5906;5889;5871;5854;5837;5820;5803;5786;5769;5753;5736;5720;5703;5687;5671;5655;5638;5623;5607;5591;5575;5560;5544;5529;5513;5498;5483;5468;5453;5438;5423;5409;5394;5379;5365;5350;5336;5322;5308;5293;5279;5265;5252;5238;5224;5210;5197;5183;5170;5156;5143;5130;5116;5103;5090;5077;5064;5052;5039;5026;5013;5001;4988;4976;4963;4951;4939;4926;4914;4902;4890;4878;4866;4854;4843;4831;4819;4807;4796;4784;4773;4761
0.504720;0.505626;0.508597;0.510081;0.508196;0.511339;0.517121;0.510950;0.511388;0.510131;0.513591;0.515301;0.522099;0.522526;0.528354;0.522611;0.524326;0.526864;0.527707;0.534468;0.534027;0.538985;0.541517;0.543359;0.544009;0.549517;0.548722;0.557241;0.559833;0.565917;0.566566;0.572579;0.574197;0.580966;0.592398;0.591592;0.602386;0.607167;0.617789;0.615927;0.629820;0.635562;0.642237;0.651336;0.658609;0.661685;0.673228;0.686138;0.691674;0.702109;0.708052;0.718718;0.727321;0.735121;0.746771;0.758353;0.764858;0.774933;0.781839;0.792724;0.801091;0.814153;0.818255;0.828754;0.839354;0.844498;0.852141;0.859282;0.865100;0.877621;0.880836;0.888530;0.894983;0.893983;0.901068;0.906525;0.908440;0.912383;0.910905;0.916173;0.914777;0.921470;0.915440;0.919683;0.914142;0.914803;0.913316;0.903125;0.910808;0.899170;0.898390;0.894311;0.893184;0.884857;0.874172;0.872949;0.867821;0.866400;0.849489;0.847199;0.836546;0.826883;0.823545;0.818772;0.808403;0.798942;0.793686;0.782524;0.776158;0.771880;0.761969;0.749152;0.746048;0.736672;0.729619;0.721382;0.714225;0.706207;0.699521;0.692613;0.686299;0.677456;0.675741;0.667346;0.658307;0.655315;0.648167;0.644144;0.637396;0.634463;0.629640;0.624040;0.616374;0.611234;0.605828;0.610979;0.602074;0.600674;0.595735;0.587190;0.584157;0.578190;0.576951;0.577246;0.570725;0.570418;0.565544;0.564358;0.559488;0.561794;0.556385;0.553220;0.548010;0.549532;0.542272;0.543940;0.540365;0.538334;0.540553;0.534171;0.535890;0.535601;0.533761;0.534971;0.526541;0.526868;0.528484;0.524880;0.524355;0.524047;0.518963;0.520199;0.518328;0.516314;0.517931;0.517990;0.515616;0.511776;0.514937;0.513209;0.509194;0.512425;0.513219;0.506569;0.509250;0.507279;0.508531;0.504923;0.509199;0.506348;0.505000;0.503440;0.505037;0.507408;0.507789;0.500314;0.503136;0.502000;0.503440;0.503556
0.506311;0.503471;0.500010;0.498726;0.508632;0.507118;0.508399;0.510137;0.504275;0.504602;0.505950;0.508112;0.508008;0.507059;0.507865;0.507995;0.511091;0.511712;0.514501;0.511573;0.515324;0.512755;0.518222;0.516995;0.519742;0.517437;0.522996;0.516374;0.522184;0.518640;0.519456;0.524902;0.528555;0.527734;0.528150;0.533185;0.531242;0.531050;0.530900;0.536106;0.538842;0.540671;0.542827;0.540093;0.549773;0.547523;0.550937;0.556108;0.555365;0.559404;0.559715;0.562654;0.564689;0.566780;0.570422;0.575380;0.578973;0.581560;0.582019;0.587945;0.588025;0.590666;0.590633;0.597098;0.601697;0.604899;0.606410;0.610409;0.612997;0.616410;0.620982;0.628211;0.624311;0.626421;0.630014;0.635930;0.633142;0.640054;0.648148;0.648456;0.650682;0.653992;0.659730;0.661746;0.665122;0.663476;0.676991;0.672195;0.685005;0.682676;0.680874;0.689634;0.687624;0.694021;0.698614;0.699084;0.706675;0.709576;0.714652;0.712145;0.716672;0.718218;0.719622;0.726781;0.733104;0.731414;0.736612;0.741754;0.744492;0.746134;0.748890;0.750695;0.754559;0.755313;0.757587;0.760932;0.765413;0.765569;0.768594;0.767552;0.770481;0.768401;0.773793;0.775660;0.775636;0.783979;0.778723;0.781115;0.783587;0.785189;0.783189;0.783430;0.783923;0.783226;0.784776;0.781601;0.788612;0.784270;0.789672;0.782921;0.781093;0.784051;0.781398;0.785887;0.781532;0.782790;0.777620;0.779040;0.773813;0.772754;0.771100;0.769371;0.764302;0.770034;0.759199;0.760906;0.757532;0.754467;0.758161;0.747849;0.744534;0.738321;0.736469;0.727812;0.733411;0.724134;0.720068;0.715524;0.708403;0.703249;0.699058;0.697868;0.689459;0.681519;0.676687;0.665128;0.663508;0.663995;0.650065;0.647526;0.645495;0.637160;0.627285;0.628995;0.624045;0.614041;0.610639;0.602001;0.599655;0.594407;0.591417;0.587538;0.577720;0.578053;0.568069;0.570293;0.559839;0.556647;0.559900;0.544919
0.550774;0.556045;0.559579;0.562988;0.561866;0.570128;0.576645;0.575429;0.583250;0.591639;0.591630;0.597848;0.599954;0.606475;0.612360;0.616102;0.624241;0.624570;0.629396;0.633676;0.636417;0.644430;0.651404;0.652219;0.656505;0.665160;0.670456;0.668777;0.678166;0.677515;0.679090;0.691521;0.686035;0.688943;0.695411;0.690626;0.697758;0.703381;0.706090;0.705021;0.703304;0.707242;0.709909;0.714376;0.707333;0.709036;0.709725;0.707749;0.709715;0.713664;0.703646;0.713641;0.709084;0.704873;0.704165;0.702188;0.707309;0.703457;0.699374;0.698691;0.696597;0.696504;0.695074;0.694311;0.691955;0.689210;0.685956;0.691524;0.684449;0.678262;0.683509;0.684852;0.684864;0.683479;0.680199;0.681209;0.677746;0.678054;0.683132;0.677367;0.682621;0.686294;0.678213;0.683228;0.684231;0.680985;0.687184;0.692971;0.691287;0.694862;0.697579;0.697191;0.702051;0.702880;0.707293;0.706787;0.710269;0.711692;0.713569;0.712658;0.718155;0.718134;0.721320;0.731232;0.730912;0.730418;0.729039;0.735303;0.739861;0.735303;0.738268;0.740107;0.741331;0.742250;0.750029;0.742180;0.738694;0.738470;0.748246;0.745912;0.741538;0.743723;0.739743;0.736683;0.737568;0.737300;0.735393;0.729315;0.721387;0.723108;0.716296;0.717124;0.709639;0.708243;0.703291;0.696168;0.699294;0.688626;0.684691;0.682050;0.680419;0.674145;0.667295;0.662477;0.657112;0.655088;0.649051;0.643181;0.642952;0.633166;0.626630;0.620603;0.622401;0.617425;0.610837;0.608362;0.601129;0.591644;0.591961;0.592287;0.588340;0.578891;0.581542;0.571635;0.568527;0.568947;0.568031;0.559701;0.558400;0.557641;0.553483;0.554058;0.548606;0.545147;0.546967;0.541397;0.535811;0.536301;0.534111;0.530787;0.529845;0.531202;0.526289;0.525992;0.524345;0.519916;0.522910;0.522365;0.520357;0.521709;0.517533;0.511160;0.511642;0.513478;0.513755;0.512862;0.509931;0.511395;0.508017;0.515000
0.523636;0.529443;0.528463;0.533417;0.534515;0.532683;0.538153;0.540876;0.538661;0.543108;0.547166;0.543562;0.551865;0.554656;0.551808;0.557777;0.559187;0.562358;0.566243;0.570092;0.572266;0.575004;0.576078;0.575897;0.582360;0.585480;0.591547;0.592406;0.596746;0.600202;0.600013;0.607663;0.605412;0.611599;0.615117;0.612674;0.625053;0.623051;0.626067;0.632843;0.630483;0.629363;0.632926;0.636756;0.641101;0.642702;0.645108;0.650806;0.652439;0.655745;0.656198;0.655926;0.660759;0.668369;0.661605;0.666246;0.662910;0.675179;0.674034;0.668747;0.672575;0.676217;0.676841;0.680882;0.678789;0.682857;0.682653;0.681471;0.684455;0.683128;0.686598;0.684526;0.688217;0.682108;0.683543;0.685400;0.683010;0.679884;0.681561;0.681468;0.680159;0.675670;0.680181;0.678857;0.673545;0.674272;0.668612;0.671414;0.666818;0.661353;0.659886;0.660303;0.657316;0.656563;0.650283;0.651260;0.642806;0.643255;0.635020;0.637630;0.631647;0.630303;0.629533;0.623902;0.625887;0.623955;0.621423;0.623068;0.616421;0.618832;0.613761;0.618479;0.618821;0.615159;0.617761;0.619849;0.615814;0.618762;0.615409;0.622164;0.624416;0.626480;0.626314;0.630155;0.632147;0.634382;0.637219;0.646437;0.647141;0.649310;0.656986;0.664183;0.661741;0.668963;0.674324;0.680463;0.684420;0.692455;0.696168;0.701265;0.704255;0.712860;0.717408;0.718428;0.725676;0.729227;0.732977;0.737672;0.736258;0.742024;0.744543;0.749974;0.749736;0.754460;0.762344;0.760832;0.758448;0.761142;0.765042;0.764474;0.762902;0.760283;0.756299;0.753377;0.757298;0.753054;0.748669;0.746537;0.747966;0.743023;0.735288;0.733950;0.730633;0.723418;0.718734;0.710816;0.711817;0.701801;0.697838;0.688090;0.680996;0.675397;0.671367;0.662374;0.662752;0.651263;0.646305;0.638075;0.638911;0.633182;0.627684;0.615595;0.609708;0.604497;0.600711;0.593484;0.587036;0.584642;0.579313;0.579563
0.517702;0.517888;0.519489;0.516524;0.520523;0.522372;0.521793;0.521041;0.519817;0.525021;0.526949;0.530731;0.533573;0.529669;0.535019;0.536058;0.537085;0.543480;0.542504;0.541123;0.543911;0.545284;0.552048;0.553827;0.551414;0.550680;0.557507;0.555071;0.560494;0.561640;0.563673;0.567169;0.564069;0.567482;0.571448;0.572020;0.575063;0.569720;0.581387;0.580836;0.583485;0.586018;0.590823;0.590395;0.590338;0.590500;0.594362;0.598525;0.599480;0.605440;0.603944;0.600824;0.610405;0.608099;0.608544;0.616161;0.613909;0.618211;0.618741;0.621930;0.620752;0.625937;0.628234;0.633722;0.634427;0.632963;0.638266;0.640461;0.643161;0.642228;0.649269;0.647570;0.652642;0.656948;0.662533;0.660327;0.662188;0.664935;0.666120;0.673656;0.678899;0.678893;0.678936;0.684064;0.688481;0.689257;0.689090;0.695318;0.696412;0.701818;0.697976;0.704183;0.706058;0.709663;0.714296;0.715867;0.715039;0.726719;0.722890;0.726763;0.728808;0.730312;0.735225;0.735681;0.739877;0.740973;0.744718;0.746296;0.742791;0.747610;0.752203;0.754882;0.751496;0.755462;0.759891;0.754185;0.762386;0.762755;0.767440;0.764675;0.763088;0.769764;0.765858;0.765945;0.764971;0.763367;0.762899;0.766644;0.760484;0.765615;0.764242;0.762370;0.761586;0.757045;0.766932;0.761062;0.759185;0.756501;0.752480;0.755067;0.750896;0.748720;0.747324;0.742796;0.743826;0.742088;0.737381;0.735829;0.730269;0.730409;0.728971;0.724904;0.720565;0.720061;0.715985;0.716775;0.708166;0.702950;0.699217;0.698496;0.693161;0.691818;0.682768;0.680444;0.679667;0.674730;0.671047;0.665512;0.663289;0.655320;0.651538;0.649230;0.642721;0.645748;0.633193;0.625938;0.624548;0.622381;0.623304;0.615487;0.611478;0.601024;0.598296;0.597003;0.589317;0.584516;0.583679;0.576523;0.578748;0.574485;0.564730;0.561521;0.554641;0.549940;0.550734;0.548785;0.548455;0.541020;0.542062;0.537033
0.525790;0.535280;0.528283;0.537333;0.538887;0.542811;0.543110;0.545399;0.547758;0.548727;0.557537;0.557018;0.560396;0.562299;0.562129;0.567955;0.572409;0.577778;0.578471;0.581241;0.588405;0.589205;0.599828;0.600206;0.604496;0.607149;0.611209;0.614266;0.613712;0.627314;0.628628;0.633467;0.635147;0.642425;0.643963;0.646540;0.655748;0.655008;0.663375;0.663048;0.673047;0.678768;0.680335;0.685768;0.693067;0.696892;0.703914;0.710547;0.710581;0.718983;0.722751;0.724969;0.730165;0.735215;0.747777;0.749548;0.753105;0.756380;0.761173;0.765081;0.771785;0.773370;0.776145;0.784485;0.788863;0.788766;0.797911;0.801198;0.801618;0.807175;0.806542;0.811077;0.811236;0.814764;0.818022;0.818997;0.821950;0.824953;0.822519;0.826753;0.827780;0.828091;0.828449;0.827788;0.823916;0.825367;0.824709;0.825106;0.819962;0.816615;0.823113;0.817356;0.811664;0.810305;0.808901;0.806042;0.803758;0.798844;0.805120;0.795204;0.788122;0.788831;0.781120;0.781893;0.773336;0.776369;0.772138;0.763500;0.762714;0.753762;0.759341;0.747430;0.745315;0.737541;0.736321;0.734514;0.726069;0.724942;0.712256;0.713938;0.709056;0.704599;0.699798;0.697162;0.685942;0.684535;0.678311;0.675461;0.673185;0.664075;0.664274;0.656806;0.656144;0.651190;0.646513;0.642488;0.637758;0.631581;0.625460;0.620314;0.618468;0.616184;0.611901;0.605741;0.598979;0.596296;0.594036;0.589629;0.586293;0.584685;0.579648;0.571786;0.572451;0.562692;0.560069;0.559906;0.558271;0.558315;0.553183;0.551516;0.550364;0.547004;0.548487;0.546913;0.543669;0.533165;0.537423;0.529066;0.532864;0.530514;0.531983;0.525153;0.524955;0.519964;0.523880;0.522468;0.525717;0.520089;0.524228;0.518696;0.517517;0.517368;0.517295;0.512628;0.512039;0.516683;0.514209;0.509984;0.513985;0.512322;0.510825;0.515779;0.511743;0.510998;0.507942;0.510158;0.513661;0.508703;0.505500;0.509309
0.532262;0.539775;0.544295;0.546256;0.550263;0.545402;0.549424;0.554558;0.558479;0.560163;0.568017;0.570044;0.569643;0.573962;0.575594;0.582861;0.585019;0.586887;0.594206;0.597336;0.604611;0.605488;0.603318;0.611643;0.612699;0.617119;0.620179;0.620545;0.625483;0.630055;0.629854;0.633595;0.636212;0.640913;0.640757;0.644731;0.647449;0.642671;0.651004;0.647860;0.651711;0.654983;0.654749;0.661604;0.662850;0.657429;0.657784;0.658781;0.661039;0.667518;0.662851;0.665706;0.661192;0.663562;0.667520;0.666765;0.665446;0.665541;0.666690;0.666163;0.662635;0.662390;0.666930;0.666206;0.670324;0.669305;0.667700;0.674304;0.671094;0.670811;0.671549;0.674210;0.673453;0.678100;0.678199;0.679752;0.678834;0.683864;0.684201;0.690476;0.692099;0.696115;0.691701;0.697947;0.705485;0.705408;0.707500;0.718639;0.716951;0.722825;0.729744;0.731186;0.732628;0.736560;0.744123;0.750686;0.751082;0.750624;0.761850;0.761927;0.771745;0.771749;0.777967;0.785474;0.785973;0.787745;0.793392;0.794078;0.794745;0.802374;0.796691;0.799068;0.804824;0.806493;0.811002;0.808729;0.808946;0.807538;0.808055;0.807841;0.808760;0.801739;0.801738;0.797679;0.798582;0.791149;0.791126;0.784154;0.780386;0.776713;0.773475;0.767386;0.765126;0.754937;0.742204;0.741641;0.735832;0.731852;0.720092;0.718669;0.712021;0.702305;0.697521;0.690485;0.689434;0.678278;0.672702;0.660186;0.656064;0.649349;0.643054;0.634684;0.626303;0.624006;0.622327;0.607103;0.605882;0.597192;0.592006;0.582623;0.579748;0.576608;0.573575;0.571459;0.563655;0.560923;0.556337;0.555254;0.546874;0.542428;0.546464;0.537099;0.533349;0.530554;0.528908;0.526079;0.524907;0.521586;0.520268;0.523623;0.521442;0.519910;0.511813;0.515701;0.512466;0.507606;0.508719;0.509811;0.509841;0.505743;0.504699;0.503535;0.504181;0.502280;0.503122;0.499796;0.504664;0.500921;0.502296;0.505309
0.501584;0.501375;0.503219;0.501501;0.497969;0.500036;0.503867;0.501808;0.499428;0.500669;0.505033;0.502357;0.500931;0.503168;0.504516;0.503199;0.504807;0.504603;0.503865;0.505873;0.506803;0.509830;0.504806;0.504303;0.508735;0.509447;0.507182;0.505582;0.505727;0.508886;0.509703;0.508249;0.509720;0.513390;0.510209;0.512334;0.512085;0.516248;0.517640;0.517295;0.515569;0.521904;0.524841;0.521749;0.521765;0.523335;0.524727;0.526849;0.528706;0.531675;0.527020;0.533194;0.533217;0.539997;0.533946;0.538283;0.542081;0.538716;0.544445;0.545427;0.546153;0.547851;0.551082;0.550166;0.555114;0.551232;0.556353;0.555901;0.564835;0.561964;0.559879;0.564953;0.562238;0.562093;0.557709;0.564580;0.568276;0.566206;0.569012;0.572942;0.574076;0.570562;0.575565;0.580396;0.574579;0.570663;0.575488;0.576832;0.574066;0.578554;0.577810;0.577304;0.582922;0.582548;0.585565;0.586839;0.586978;0.590141;0.590323;0.591735;0.597872;0.592826;0.597022;0.600950;0.606000;0.605696;0.611943;0.613953;0.616772;0.621083;0.621385;0.623390;0.632346;0.632309;0.640916;0.638458;0.650297;0.654472;0.657642;0.665848;0.675081;0.679089;0.686416;0.693639;0.700701;0.707152;0.712944;0.725860;0.727510;0.738195;0.744522;0.755516;0.765536;0.773739;0.780093;0.791758;0.800711;0.807122;0.814921;0.822753;0.828852;0.840882;0.841552;0.853628;0.860900;0.868215;0.873379;0.886583;0.887243;0.887619;0.892320;0.905649;0.910809;0.912411;0.915916;0.916838;0.914241;0.915251;0.913793;0.918003;0.915779;0.915365;0.911081;0.900032;0.902776;0.900367;0.894770;0.890739;0.886955;0.881872;0.874986;0.866406;0.858611;0.851248;0.840871;0.830876;0.827081;0.815396;0.808575;0.797936;0.790153;0.779772;0.767144;0.758042;0.753812;0.738925;0.728756;0.719299;0.709924;0.699755;0.696918;0.679013;0.669450;0.663449;0.653729;0.642872;0.636682;0.631994;0.618901;0.613428
0.560672;0.566675;0.570668;0.575967;0.577304;0.586298;0.589768;0.593756;0.600052;0.602624;0.608661;0.614467;0.618471;0.627647;0.631039;0.637590;0.642095;0.648023;0.651048;0.666238;0.664382;0.675655;0.674317;0.682825;0.682993;0.690216;0.693479;0.699341;0.708481;0.713296;0.712713;0.724032;0.726109;0.723684;0.730018;0.728150;0.736903;0.737500;0.734828;0.738161;0.737010;0.745520;0.744279;0.747886;0.744699;0.744732;0.742368;0.747996;0.744824;0.741895;0.738254;0.739688;0.738883;0.734373;0.733257;0.731927;0.731250;0.728066;0.724250;0.720862;0.718112;0.712911;0.714808;0.709353;0.705236;0.702943;0.706642;0.699927;0.690239;0.690977;0.689917;0.685965;0.683303;0.680110;0.679355;0.674204;0.672900;0.672493;0.668524;0.666518;0.661828;0.662010;0.662484;0.663023;0.663699;0.657219;0.658090;0.657053;0.660230;0.663692;0.657774;0.656448;0.656663;0.661952;0.658628;0.661859;0.665469;0.661840;0.659025;0.663901;0.663678;0.663281;0.660737;0.663745;0.663837;0.669715;0.668445;0.671384;0.666560;0.669914;0.674125;0.670630;0.671723;0.673283;0.673092;0.673376;0.670481;0.672130;0.675496;0.673665;0.673745;0.670318;0.674794;0.675239;0.673860;0.673294;0.677043;0.672266;0.670547;0.674546;0.669588;0.667423;0.671485;0.665932;0.666043;0.667326;0.660201;0.660479;0.656985;0.658413;0.658960;0.655341;0.657174;0.654244;0.650602;0.654233;0.652333;0.646389;0.646558;0.640159;0.640302;0.642056;0.639391;0.633538;0.637154;0.628444;0.628885;0.626053;0.622470;0.623045;0.621041;0.618936;0.612194;0.612187;0.610643;0.606235;0.602379;0.601094;0.601697;0.594324;0.591870;0.594007;0.591496;0.591876;0.584462;0.583343;0.579380;0.572038;0.572092;0.572353;0.569285;0.565577;0.562755;0.560093;0.558891;0.557264;0.553204;0.552683;0.549199;0.546090;0.547055;0.543048;0.537662;0.538318;0.538563;0.533401;0.529917;0.529274;0.529627;0.532591
0.559485;0.566712;0.567351;0.573949;0.577193;0.578840;0.588452;0.587437;0.601014;0.601623;0.606735;0.610790;0.614217;0.624571;0.629402;0.636640;0.635388;0.642955;0.653689;0.660205;0.668181;0.666406;0.676481;0.681705;0.685452;0.689475;0.697263;0.702119;0.703791;0.708852;0.715412;0.725022;0.725987;0.730323;0.735858;0.742011;0.745651;0.746371;0.744307;0.754353;0.755850;0.760750;0.760800;0.763853;0.762451;0.765460;0.773045;0.770893;0.771773;0.769851;0.770961;0.773983;0.766100;0.772084;0.770006;0.773212;0.767240;0.772333;0.765968;0.767254;0.765079;0.764371;0.763616;0.764770;0.756347;0.760395;0.758002;0.753092;0.748433;0.754497;0.749990;0.743801;0.746501;0.741867;0.742454;0.736650;0.741478;0.732771;0.735081;0.730875;0.731534;0.726377;0.728133;0.722664;0.722165;0.716696;0.715427;0.716778;0.712647;0.715328;0.711220;0.707589;0.704661;0.702940;0.700417;0.703656;0.697988;0.702402;0.691803;0.685761;0.687315;0.689423;0.686799;0.686454;0.680199;0.681634;0.676375;0.674535;0.672848;0.673282;0.672961;0.674442;0.670986;0.666346;0.665863;0.659851;0.656423;0.656138;0.662329;0.654040;0.655930;0.649287;0.650477;0.647124;0.646505;0.640874;0.642789;0.643894;0.641037;0.635586;0.635305;0.631544;0.631528;0.630376;0.625768;0.628038;0.621084;0.624304;0.619811;0.617524;0.616204;0.615677;0.612742;0.609324;0.607785;0.608235;0.605854;0.604449;0.606558;0.601546;0.600129;0.597182;0.598485;0.593903;0.590438;0.592911;0.586332;0.584156;0.581396;0.584600;0.584398;0.576759;0.581024;0.579037;0.568569;0.572154;0.573179;0.569216;0.566881;0.568511;0.564762;0.561331;0.559905;0.557816;0.556509;0.554189;0.549334;0.550396;0.548200;0.546781;0.547659;0.542609;0.539488;0.542434;0.542780;0.536728;0.538120;0.535389;0.536453;0.532859;0.532746;0.532204;0.528300;0.531091;0.526546;0.524959;0.527127;0.526123;0.521809;0.515275
0.523391;0.525048;0.526368;0.528221;0.529221;0.529446;0.531207;0.533565;0.531318;0.537505;0.540651;0.538174;0.539221;0.542697;0.548425;0.548339;0.552402;0.554098;0.554472;0.563566;0.560168;0.560974;0.559704;0.564781;0.567292;0.571008;0.570893;0.574789;0.576835;0.576529;0.578730;0.575642;0.577056;0.579888;0.581228;0.587220;0.584365;0.585767;0.587306;0.587415;0.583297;0.590509;0.586029;0.586556;0.581837;0.589365;0.585079;0.585092;0.590600;0.586863;0.586329;0.583480;0.584742;0.584123;0.583025;0.585973;0.585047;0.589512;0.582679;0.584015;0.587663;0.584995;0.582916;0.583207;0.584711;0.590213;0.588226;0.591079;0.587450;0.597273;0.593924;0.595760;0.601267;0.597402;0.601767;0.608200;0.609057;0.613648;0.617407;0.620061;0.624155;0.630906;0.637421;0.644204;0.646103;0.652862;0.660214;0.672791;0.674957;0.681531;0.685132;0.699236;0.699128;0.705034;0.719513;0.726082;0.732653;0.744894;0.750139;0.759195;0.765783;0.770905;0.779981;0.783154;0.791653;0.797406;0.807616;0.816641;0.822944;0.825668;0.835234;0.832427;0.841103;0.842194;0.849543;0.852698;0.857512;0.861648;0.863751;0.859266;0.859837;0.864518;0.861382;0.858857;0.864480;0.860270;0.858443;0.854644;0.853586;0.851496;0.846786;0.844754;0.837907;0.837851;0.831980;0.826329;0.818839;0.809953;0.807146;0.800019;0.793370;0.788911;0.779089;0.778197;0.764588;0.758693;0.757417;0.750013;0.735227;0.733987;0.725319;0.717460;0.709604;0.709487;0.693637;0.689670;0.686280;0.677644;0.670717;0.664552;0.662224;0.649404;0.645211;0.640501;0.643768;0.629913;0.622581;0.623896;0.623642;0.617851;0.604104;0.600037;0.594706;0.591309;0.588747;0.585726;0.581676;0.584024;0.573056;0.565835;0.567082;0.563257;0.558089;0.558201;0.550962;0.554943;0.547806;0.543919;0.540314;0.539354;0.537067;0.532586;0.534944;0.536186;0.526582;0.529856;0.529806;0.526056;0.525817;0.518285
0.577903;0.583240;0.592561;0.601179;0.602757;0.613078;0.619278;0.620575;0.628410;0.629454;0.647825;0.645998;0.654604;0.657810;0.671865;0.676666;0.685291;0.696619;0.700959;0.704399;0.714123;0.722626;0.728627;0.732890;0.738326;0.748893;0.756314;0.761306;0.764599;0.762872;0.770043;0.775227;0.782587;0.785536;0.792887;0.793927;0.797063;0.795303;0.804170;0.802818;0.800753;0.802838;0.800675;0.801457;0.800236;0.802238;0.796774;0.793316;0.794724;0.792146;0.789573;0.787994;0.789023;0.780189;0.773524;0.770867;0.766722;0.760836;0.756981;0.755271;0.745536;0.743719;0.735253;0.734784;0.729233;0.720027;0.715918;0.717625;0.712753;0.703637;0.697230;0.691399;0.688637;0.680753;0.679694;0.673369;0.672474;0.670400;0.662025;0.662847;0.658585;0.657442;0.657294;0.647775;0.648550;0.647014;0.644055;0.643581;0.641079;0.650024;0.644326;0.646336;0.645955;0.636808;0.638670;0.641046;0.641226;0.643459;0.640589;0.640561;0.646807;0.645773;0.641854;0.644548;0.650316;0.647122;0.647949;0.647535;0.652180;0.651459;0.652188;0.653503;0.651896;0.649246;0.653989;0.653821;0.655137;0.654433;0.655949;0.651521;0.649957;0.653067;0.652012;0.652610;0.650137;0.648436;0.654706;0.645745;0.649231;0.647881;0.644487;0.644582;0.644207;0.638816;0.636962;0.636209;0.630889;0.632279;0.628092;0.626526;0.628640;0.620553;0.622941;0.619431;0.616077;0.617593;0.612849;0.609935;0.610899;0.606830;0.602428;0.596484;0.596957;0.596503;0.596181;0.586286;0.586531;0.586858;0.582864;0.582430;0.583282;0.578699;0.578523;0.571459;0.572321;0.569843;0.563000;0.560707;0.563486;0.561110;0.555730;0.560879;0.553322;0.550701;0.551851;0.548763;0.544601;0.544134;0.541901;0.536562;0.542221;0.543964;0.534768;0.537060;0.534625;0.531546;0.526944;0.527453;0.525455;0.524158;0.530472;0.524912;0.524663;0.524663;0.522025;0.523775;0.522080;0.516212;0.518520;0.512227
0.518504;0.514031;0.519007;0.512322;0.515590;0.522905;0.524246;0.520865;0.526347;0.527472;0.527946;0.526353;0.531273;0.531202;0.534123;0.531468;0.540466;0.540839;0.541377;0.540512;0.545234;0.544556;0.548788;0.545984;0.552023;0.553958;0.559826;0.557497;0.562363;0.556581;0.562797;0.565489;0.569791;0.571577;0.575447;0.569707;0.573998;0.581963;0.585318;0.581903;0.581520;0.588047;0.588491;0.592156;0.594521;0.597167;0.597477;0.597200;0.599990;0.601073;0.609097;0.606450;0.613735;0.611752;0.619548;0.615308;0.622301;0.625389;0.625386;0.631574;0.630053;0.633209;0.634828;0.635545;0.635002;0.642073;0.641581;0.643399;0.646915;0.648160;0.649764;0.652652;0.656597;0.656125;0.663240;0.660731;0.667128;0.667453;0.668672;0.666763;0.673139;0.670603;0.674913;0.675189;0.673196;0.680783;0.681638;0.683354;0.685742;0.691001;0.689708;0.685239;0.688494;0.692036;0.691928;0.695077;0.690637;0.691406;0.696454;0.698133;0.697757;0.699482;0.699410;0.702353;0.699964;0.699952;0.703888;0.705639;0.704931;0.709583;0.708235;0.718056;0.717902;0.711444;0.713341;0.715338;0.720732;0.721810;0.721232;0.724560;0.723598;0.731253;0.725853;0.730098;0.729925;0.728766;0.732385;0.733334;0.737797;0.735095;0.738563;0.739431;0.737539;0.737569;0.744683;0.742496;0.739551;0.744222;0.740420;0.748689;0.741965;0.743769;0.749319;0.745872;0.752050;0.749922;0.749766;0.747003;0.741679;0.746110;0.748981;0.742542;0.741258;0.740771;0.739456;0.736695;0.737671;0.731939;0.730878;0.728897;0.724236;0.726907;0.722810;0.723943;0.709530;0.713530;0.707047;0.703746;0.695485;0.697450;0.692524;0.688959;0.683062;0.679063;0.672259;0.663221;0.657696;0.653297;0.649897;0.642739;0.639622;0.633498;0.632108;0.627262;0.621054;0.617042;0.609066;0.605268;0.601205;0.591980;0.587212;0.581407;0.584320;0.577131;0.567485;0.565508;0.557581;0.561787;0.552819;0.545204
0.509862;0.510657;0.512710;0.509108;0.511008;0.512572;0.511776;0.515364;0.514705;0.511823;0.518193;0.519107;0.520047;0.517360;0.520777;0.520515;0.524279;0.522350;0.525068;0.526383;0.533424;0.531622;0.531970;0.534932;0.538410;0.542428;0.544546;0.542689;0.544193;0.545905;0.547206;0.552714;0.549760;0.558749;0.561409;0.561963;0.564439;0.571506;0.572874;0.576519;0.579459;0.589089;0.589345;0.590074;0.595531;0.597741;0.606835;0.602438;0.608386;0.615035;0.620677;0.620533;0.629407;0.634951;0.636866;0.640980;0.647091;0.650217;0.657320;0.660350;0.665434;0.669497;0.677377;0.678128;0.686701;0.689614;0.697078;0.697982;0.699710;0.706138;0.707027;0.718258;0.718267;0.727024;0.726854;0.734115;0.736325;0.737789;0.741270;0.748402;0.751030;0.747063;0.751839;0.754230;0.754414;0.757279;0.761369;0.762102;0.763402;0.766974;0.764695;0.767929;0.771402;0.777988;0.770042;0.773513;0.777949;0.777233;0.775862;0.775548;0.777134;0.773682;0.778569;0.775312;0.773470;0.780284;0.780461;0.775670;0.775283;0.779998;0.779592;0.774052;0.775271;0.772501;0.775663;0.770032;0.771337;0.770199;0.767966;0.764966;0.766675;0.766248;0.766560;0.762566;0.759751;0.756500;0.751908;0.752612;0.754280;0.748020;0.743253;0.744106;0.742589;0.741914;0.734255;0.735731;0.728628;0.728130;0.726031;0.722734;0.717718;0.715236;0.715977;0.711690;0.709994;0.703470;0.701691;0.699047;0.696427;0.696005;0.688240;0.684954;0.682032;0.678425;0.673881;0.675186;0.666700;0.665023;0.667262;0.658848;0.652611;0.653072;0.643697;0.643964;0.639311;0.637331;0.635437;0.631417;0.622715;0.619323;0.614528;0.611300;0.609569;0.609935;0.603960;0.599705;0.600465;0.597090;0.588477;0.587500;0.583629;0.582607;0.574553;0.571474;0.573181;0.571715;0.563638;0.562655;0.558380;0.555505;0.556597;0.552119;0.546821;0.545332;0.543155;0.538908;0.539012;0.537373;0.535649;0.532973
0.585905;0.587733;0.589768;0.597695;0.603443;0.611868;0.616808;0.623713;0.632521;0.638426;0.646457;0.653157;0.663202;0.663521;0.680646;0.675034;0.689618;0.698890;0.702281;0.712021;0.714934;0.725132;0.735595;0.740580;0.747635;0.756264;0.759999;0.767443;0.769527;0.776062;0.781019;0.784835;0.790746;0.791505;0.799104;0.801002;0.806584;0.809093;0.803217;0.808352;0.809806;0.812395;0.816997;0.817477;0.811958;0.811061;0.808433;0.808788;0.807505;0.801541;0.802563;0.797572;0.793094;0.787552;0.790721;0.782881;0.777120;0.773722;0.764810;0.762630;0.758041;0.757297;0.750957;0.746851;0.735916;0.731242;0.723287;0.715257;0.711831;0.711572;0.702418;0.694585;0.691942;0.685210;0.682732;0.673811;0.672006;0.667823;0.660684;0.658686;0.652865;0.646042;0.645062;0.644131;0.636708;0.638288;0.630746;0.623264;0.626780;0.623952;0.620205;0.615027;0.613672;0.609577;0.609460;0.609445;0.600934;0.607715;0.605053;0.603110;0.600176;0.597999;0.598487;0.598304;0.593199;0.591178;0.594069;0.597055;0.594584;0.591178;0.594677;0.596418;0.589384;0.594557;0.596470;0.592652;0.591476;0.587924;0.594659;0.588054;0.595095;0.599183;0.597287;0.596461;0.596538;0.599721;0.594722;0.598042;0.603188;0.602160;0.600149;0.601905;0.604146;0.602397;0.602621;0.605538;0.605074;0.607794;0.610614;0.609111;0.608991;0.613279;0.614343;0.613060;0.617348;0.612588;0.612279;0.618470;0.612442;0.612614;0.613501;0.609514;0.612301;0.616545;0.612294;0.612545;0.616150;0.610953;0.607244;0.607113;0.609575;0.611199;0.606900;0.605068;0.602829;0.598399;0.603015;0.603688;0.598750;0.592696;0.592765;0.592669;0.584663;0.584819;0.589664;0.581402;0.579867;0.577635;0.574069;0.572392;0.568685;0.565692;0.563840;0.564404;0.560311;0.553168;0.555412;0.550160;0.550712;0.550599;0.544287;0.550113;0.540627;0.536017;0.536192;0.532538;0.532834;0.530291;0.530392;0.528623
0.542460;0.544835;0.548265;0.552309;0.562419;0.565420;0.564909;0.570888;0.575602;0.577145;0.578741;0.582478;0.586181;0.597936;0.602378;0.603312;0.604992;0.618593;0.623604;0.624948;0.629654;0.629255;0.635288;0.646568;0.646811;0.653136;0.658595;0.665862;0.667821;0.676362;0.683361;0.686770;0.696756;0.699753;0.706547;0.706960;0.716240;0.722774;0.723514;0.727734;0.736706;0.745466;0.743943;0.752815;0.758566;0.760697;0.760770;0.768967;0.776946;0.780221;0.780146;0.786158;0.792992;0.792060;0.801104;0.799229;0.809370;0.814347;0.815470;0.816624;0.820849;0.828572;0.828155;0.826387;0.831549;0.834919;0.839055;0.840220;0.843080;0.840858;0.838393;0.842109;0.840049;0.838042;0.844270;0.842030;0.841140;0.838971;0.835959;0.835442;0.835919;0.828578;0.829159;0.827303;0.823340;0.814719;0.811508;0.811132;0.798817;0.797001;0.788482;0.783521;0.780340;0.770268;0.765758;0.760206;0.750845;0.745334;0.742237;0.733818;0.722274;0.720040;0.711994;0.707067;0.696517;0.695373;0.682156;0.670790;0.673081;0.658896;0.656173;0.649467;0.639574;0.634509;0.629571;0.624285;0.618614;0.617382;0.606660;0.607166;0.600908;0.592672;0.595754;0.587298;0.584979;0.585775;0.580702;0.574694;0.568414;0.574779;0.565478;0.565190;0.564814;0.556150;0.561443;0.557159;0.555638;0.556133;0.559296;0.554446;0.556430;0.549469;0.550453;0.554064;0.555037;0.550226;0.547319;0.550288;0.551759;0.550717;0.546723;0.548148;0.544336;0.547645;0.544844;0.544209;0.545252;0.548344;0.546488;0.545239;0.542903;0.543120;0.537951;0.542313;0.541000;0.542075;0.537887;0.537750;0.537484;0.537774;0.540960;0.539375;0.537666;0.531543;0.532392;0.528248;0.529654;0.526747;0.523965;0.528940;0.530706;0.525914;0.523227;0.522677;0.525037;0.523735;0.519210;0.515406;0.512417;0.517125;0.513556;0.515935;0.515705;0.513332;0.511200;0.507612;0.513899;0.508830;0.510480;0.502702
0.537499;0.540252;0.537750;0.538495;0.546641;0.550281;0.552488;0.554145;0.558219;0.563393;0.564341;0.566145;0.569350;0.577811;0.581270;0.582731;0.586492;0.593312;0.593719;0.600710;0.604753;0.606063;0.612437;0.623007;0.627727;0.630454;0.632341;0.639868;0.643727;0.651682;0.651917;0.660645;0.667817;0.674676;0.674766;0.677921;0.688725;0.695163;0.698666;0.703570;0.711452;0.714325;0.724791;0.728813;0.731938;0.741716;0.744500;0.751613;0.755576;0.760437;0.766859;0.774557;0.780059;0.780324;0.791120;0.792098;0.798774;0.807427;0.806368;0.823434;0.821085;0.819883;0.826894;0.833745;0.835857;0.841168;0.849326;0.839676;0.850740;0.851420;0.853959;0.858193;0.860347;0.864236;0.856365;0.862065;0.858936;0.859943;0.859074;0.857939;0.853316;0.853462;0.850539;0.852387;0.846992;0.842369;0.842126;0.834520;0.827817;0.826431;0.823023;0.812656;0.810416;0.807525;0.794448;0.789094;0.783880;0.776747;0.767624;0.758687;0.754224;0.748078;0.741747;0.735423;0.725493;0.716728;0.707497;0.699877;0.704695;0.688363;0.681255;0.680048;0.663199;0.667260;0.657603;0.651887;0.644217;0.637945;0.633740;0.626484;0.623829;0.616686;0.610412;0.607581;0.602306;0.599079;0.596034;0.588519;0.586335;0.584772;0.579410;0.579140;0.575559;0.574624;0.574274;0.565365;0.569393;0.560007;0.559025;0.562724;0.558291;0.557497;0.554241;0.552173;0.550068;0.547259;0.549558;0.548142;0.545859;0.547075;0.544248;0.542026;0.546085;0.540413;0.538486;0.542222;0.537364;0.542655;0.540689;0.534628;0.536021;0.536773;0.534487;0.537633;0.534671;0.533057;0.531867;0.530762;0.525342;0.529427;0.524954;0.528833;0.527079;0.528322;0.524714;0.523415;0.525152;0.521479;0.519277;0.515622;0.518571;0.516701;0.519713;0.514573;0.510348;0.514423;0.509399;0.512293;0.507718;0.509399;0.506219;0.507805;0.503874;0.509509;0.505283;0.509514;0.506316;0.505692;0.505955;0.501899
0.517417;0.519756;0.516256;0.524018;0.521655;0.524119;0.521627;0.526279;0.529786;0.524629;0.529351;0.531018;0.525821;0.537038;0.533281;0.537336;0.538381;0.537318;0.545064;0.542667;0.538654;0.543398;0.547476;0.550289;0.547726;0.545801;0.556105;0.554930;0.558168;0.555985;0.554648;0.561423;0.556555;0.561916;0.557714;0.560363;0.566000;0.561562;0.563315;0.562647;0.564739;0.559002;0.565703;0.563315;0.559719;0.560819;0.561847;0.563465;0.559736;0.560094;0.559151;0.558551;0.558538;0.555349;0.559404;0.557032;0.554902;0.559065;0.557182;0.556284;0.556133;0.549740;0.553403;0.551590;0.553993;0.553983;0.551559;0.551219;0.550085;0.550527;0.553388;0.552862;0.550301;0.549802;0.559763;0.554270;0.553796;0.558099;0.558812;0.557772;0.560011;0.560674;0.563538;0.566471;0.571011;0.570711;0.574693;0.579325;0.583219;0.583222;0.589149;0.593081;0.590447;0.596912;0.600685;0.605327;0.606053;0.612884;0.610733;0.625903;0.627242;0.632584;0.633173;0.639839;0.643390;0.650007;0.652899;0.660035;0.662317;0.668295;0.673087;0.682255;0.690146;0.688756;0.693791;0.703381;0.705757;0.708726;0.712619;0.718133;0.730057;0.732844;0.737257;0.744723;0.750100;0.750639;0.759561;0.765443;0.770850;0.775342;0.778150;0.782282;0.789665;0.795212;0.800781;0.800079;0.809149;0.813153;0.814508;0.824660;0.827112;0.831242;0.834185;0.834161;0.837481;0.839221;0.842379;0.845360;0.849161;0.852963;0.851822;0.849853;0.848380;0.850916;0.855506;0.853407;0.846429;0.847853;0.849830;0.846690;0.844540;0.841049;0.838391;0.835340;0.827584;0.822781;0.823090;0.814152;0.809272;0.800811;0.797336;0.789722;0.783399;0.773602;0.768215;0.766336;0.756606;0.747315;0.742576;0.733242;0.729921;0.715723;0.709872;0.702787;0.695948;0.687158;0.678401;0.671138;0.659173;0.657063;0.648458;0.641836;0.635634;0.627885;0.627310;0.615170;0.613201;0.600567;0.593867;0.592133
0.555578;0.562072;0.560079;0.570987;0.569903;0.576483;0.584652;0.583028;0.585438;0.598699;0.599643;0.602454;0.609248;0.615583;0.616764;0.624625;0.630341;0.637119;0.640693;0.643822;0.648639;0.651745;0.656087;0.666251;0.667583;0.673440;0.673550;0.682609;0.683076;0.681279;0.688169;0.694159;0.695544;0.698980;0.701446;0.702988;0.701095;0.700639;0.706579;0.704979;0.704901;0.707245;0.700272;0.700268;0.700244;0.700515;0.698375;0.697835;0.692407;0.690802;0.688086;0.685877;0.680930;0.676858;0.675514;0.668655;0.666495;0.663954;0.656542;0.648823;0.649531;0.639911;0.638502;0.634402;0.631813;0.627913;0.619429;0.613398;0.608609;0.604658;0.599532;0.598696;0.588792;0.589131;0.587554;0.581371;0.576034;0.574241;0.571862;0.564049;0.562934;0.555601;0.557053;0.554756;0.551271;0.553086;0.545186;0.552457;0.545237;0.540008;0.537664;0.536773;0.537118;0.536896;0.535340;0.538699;0.531335;0.538731;0.538120;0.539583;0.540351;0.540844;0.540760;0.537094;0.538026;0.547111;0.545821;0.547098;0.551362;0.551304;0.555405;0.560164;0.561051;0.563905;0.572064;0.573923;0.578362;0.577928;0.583643;0.587140;0.591908;0.597586;0.606686;0.605241;0.612449;0.623868;0.625071;0.632595;0.636360;0.642236;0.651466;0.655082;0.660520;0.674109;0.674500;0.680100;0.689016;0.688409;0.704675;0.705915;0.716445;0.719395;0.725302;0.733182;0.740173;0.740101;0.745025;0.751456;0.757581;0.760961;0.761975;0.768298;0.769491;0.771087;0.776963;0.775778;0.779268;0.777469;0.774932;0.779236;0.780320;0.780937;0.777843;0.776071;0.771740;0.767161;0.769808;0.765336;0.760498;0.762774;0.748314;0.741126;0.739033;0.733146;0.732063;0.726664;0.719134;0.709131;0.708412;0.699916;0.689635;0.686398;0.680019;0.672409;0.660740;0.660050;0.650866;0.641174;0.641001;0.629794;0.628731;0.618922;0.610855;0.603643;0.602957;0.597176;0.588840;0.580546;0.576338;0.572583
0.516224;0.514763;0.516320;0.519131;0.521285;0.512181;0.522248;0.524535;0.520644;0.522613;0.525746;0.526204;0.523443;0.523976;0.528165;0.534553;0.531162;0.536294;0.533931;0.536006;0.543468;0.538142;0.541102;0.547578;0.542541;0.547368;0.554151;0.549546;0.552082;0.554442;0.552223;0.558001;0.558119;0.555540;0.559769;0.565385;0.561797;0.563015;0.565134;0.574731;0.567925;0.571249;0.572294;0.573696;0.574959;0.576249;0.576766;0.580559;0.579259;0.588790;0.588221;0.592902;0.589338;0.591253;0.595245;0.596423;0.602166;0.598942;0.601429;0.603739;0.603901;0.613357;0.617059;0.613870;0.618905;0.622997;0.626140;0.629207;0.635577;0.638998;0.645484;0.648625;0.649152;0.655997;0.658232;0.671879;0.670771;0.677065;0.683502;0.685225;0.692870;0.696179;0.706726;0.712397;0.722268;0.718556;0.730472;0.739446;0.744019;0.753742;0.756858;0.762765;0.777048;0.782577;0.784737;0.790444;0.801638;0.809129;0.816432;0.823935;0.832032;0.834904;0.836093;0.847222;0.853929;0.858609;0.861377;0.867231;0.876069;0.879921;0.876259;0.881751;0.887979;0.888763;0.893991;0.895822;0.892257;0.894992;0.897648;0.892667;0.890921;0.894075;0.892239;0.888720;0.882366;0.881773;0.880127;0.870047;0.865504;0.861318;0.850530;0.845045;0.838694;0.836296;0.824249;0.824205;0.811801;0.806207;0.793030;0.787176;0.780695;0.770661;0.759918;0.743877;0.744882;0.730676;0.719620;0.717471;0.707067;0.700275;0.692811;0.682811;0.671350;0.662416;0.656442;0.651045;0.641331;0.630919;0.628075;0.619785;0.620524;0.605101;0.601643;0.593682;0.589257;0.580614;0.580710;0.576885;0.567732;0.568414;0.558968;0.557850;0.554373;0.548247;0.544673;0.541634;0.544752;0.540379;0.537081;0.532262;0.529504;0.530189;0.526388;0.526875;0.522004;0.522196;0.521348;0.527156;0.521941;0.516086;0.513936;0.515137;0.514762;0.514530;0.512898;0.511063;0.511374;0.512219;0.506331;0.504525
0.519783;0.519130;0.515603;0.520505;0.519588;0.527351;0.522630;0.523218;0.526507;0.527503;0.527093;0.529628;0.533617;0.536082;0.539212;0.543429;0.543842;0.542217;0.549384;0.550290;0.555662;0.553729;0.557383;0.562051;0.560076;0.559818;0.567852;0.567303;0.572701;0.575059;0.576920;0.574096;0.575445;0.581216;0.582119;0.586814;0.593072;0.595210;0.598382;0.597189;0.598995;0.600468;0.608753;0.606684;0.606899;0.609950;0.613735;0.617073;0.619374;0.621397;0.620132;0.627732;0.632281;0.630186;0.638799;0.640618;0.637930;0.644848;0.641177;0.648655;0.651333;0.653191;0.658944;0.663549;0.657734;0.665268;0.665664;0.666275;0.670034;0.675987;0.678985;0.680536;0.681962;0.682937;0.682861;0.685584;0.688554;0.690243;0.691269;0.693082;0.696755;0.701723;0.701471;0.706245;0.702350;0.707270;0.705194;0.707637;0.711094;0.713850;0.718037;0.716169;0.714235;0.718940;0.718463;0.723244;0.719144;0.721806;0.727700;0.727011;0.724882;0.727971;0.731533;0.731554;0.735413;0.731549;0.733697;0.735630;0.733825;0.739254;0.730360;0.734821;0.739554;0.737501;0.738705;0.738500;0.739662;0.739603;0.739279;0.738444;0.742918;0.736418;0.739777;0.744090;0.744764;0.734832;0.742953;0.736923;0.741163;0.739866;0.743579;0.737912;0.739098;0.737236;0.733907;0.740384;0.734153;0.733624;0.731696;0.731363;0.727162;0.724293;0.726344;0.721215;0.725566;0.724087;0.719443;0.718879;0.720014;0.719754;0.714876;0.713674;0.712897;0.702075;0.704450;0.696923;0.697871;0.700449;0.696204;0.690798;0.687993;0.683785;0.681516;0.676246;0.671589;0.671820;0.666294;0.663151;0.659583;0.657630;0.649528;0.647669;0.644016;0.640644;0.635520;0.635192;0.624829;0.625073;0.620507;0.616795;0.611714;0.605483;0.599359;0.596623;0.594633;0.588028;0.586084;0.581254;0.579759;0.575683;0.567798;0.568246;0.563628;0.561540;0.556116;0.553140;0.549210;0.546306;0.544890;0.542381
0.538779;0.545452;0.543654;0.548552;0.550743;0.558096;0.563717;0.568045;0.570937;0.568897;0.574497;0.584711;0.584891;0.588090;0.593683;0.597053;0.606638;0.605510;0.615676;0.616283;0.615109;0.624147;0.629713;0.634633;0.638377;0.642983;0.651272;0.656874;0.659374;0.669117;0.676509;0.674888;0.681924;0.686432;0.694393;0.692698;0.700272;0.707386;0.714688;0.719007;0.720502;0.728205;0.732994;0.736652;0.743437;0.746853;0.749895;0.759102;0.767182;0.767834;0.771917;0.776680;0.782114;0.788720;0.791980;0.792695;0.794661;0.799705;0.802833;0.812074;0.807654;0.814311;0.820070;0.823537;0.824753;0.826717;0.828931;0.827161;0.832118;0.830079;0.833134;0.833768;0.835393;0.832771;0.834069;0.833872;0.832459;0.834422;0.832474;0.830403;0.826127;0.827731;0.824090;0.812702;0.812685;0.813683;0.809562;0.802328;0.793249;0.792635;0.784528;0.782586;0.769576;0.770947;0.765159;0.757727;0.751475;0.743563;0.737611;0.732417;0.725313;0.716650;0.703199;0.706465;0.695310;0.687983;0.687175;0.679174;0.662131;0.662826;0.658881;0.651893;0.644820;0.642545;0.635481;0.625929;0.625278;0.617567;0.616790;0.612056;0.605431;0.597444;0.601472;0.596671;0.590902;0.589859;0.583647;0.577581;0.576963;0.577851;0.575534;0.574146;0.572107;0.572398;0.570088;0.566081;0.567772;0.563548;0.562793;0.563640;0.567376;0.564803;0.563332;0.567631;0.563295;0.557603;0.562513;0.559506;0.564367;0.559074;0.561037;0.558015;0.563932;0.557965;0.562780;0.563462;0.559167;0.567859;0.562410;0.554536;0.557632;0.557862;0.556560;0.558286;0.554685;0.553812;0.552588;0.551593;0.551301;0.549428;0.551911;0.548067;0.545659;0.542715;0.543572;0.545712;0.542444;0.536028;0.542338;0.538694;0.539726;0.533020;0.532369;0.527819;0.533239;0.530773;0.525857;0.522950;0.525932;0.523915;0.518923;0.523768;0.516445;0.517960;0.514752;0.515364;0.513489;0.509127;0.511507;0.514031
0.539050;0.541643;0.541144;0.550256;0.554613;0.556130;0.554911;0.560251;0.562357;0.565389;0.571795;0.570417;0.576027;0.581109;0.584802;0.593598;0.595922;0.601956;0.601656;0.606879;0.604354;0.615178;0.614507;0.627438;0.626746;0.625759;0.633290;0.636718;0.642877;0.648368;0.649757;0.648066;0.656648;0.655178;0.664050;0.666293;0.666653;0.668517;0.674170;0.672364;0.675233;0.682169;0.682437;0.682339;0.687056;0.687036;0.685460;0.687511;0.689549;0.691301;0.692520;0.687591;0.688172;0.689991;0.692265;0.694131;0.690539;0.688303;0.693718;0.690472;0.693611;0.691273;0.697475;0.690809;0.688404;0.685041;0.687234;0.688787;0.683450;0.687266;0.683616;0.678745;0.679420;0.681744;0.676278;0.675935;0.676331;0.668600;0.673071;0.664723;0.669114;0.664065;0.661834;0.661385;0.655532;0.653708;0.646944;0.649275;0.644740;0.647642;0.642740;0.636898;0.632843;0.634000;0.629419;0.623726;0.625497;0.624483;0.620731;0.616662;0.611844;0.606691;0.611816;0.607060;0.606523;0.602002;0.602593;0.607170;0.601456;0.595493;0.607334;0.599171;0.604260;0.596853;0.600720;0.599535;0.599879;0.610722;0.602311;0.603549;0.608250;0.613575;0.611170;0.616243;0.613638;0.617544;0.626791;0.626424;0.623182;0.632311;0.637369;0.638192;0.644563;0.654013;0.657086;0.655990;0.664022;0.663981;0.673949;0.676472;0.682855;0.684247;0.687576;0.693648;0.698314;0.703481;0.706408;0.715103;0.715645;0.717930;0.721285;0.720616;0.725435;0.724159;0.730167;0.727588;0.727336;0.728132;0.733343;0.735239;0.734423;0.726893;0.724691;0.729295;0.728538;0.726676;0.721444;0.723400;0.718005;0.715761;0.710513;0.705609;0.699412;0.700277;0.695246;0.690341;0.686715;0.677126;0.674725;0.671272;0.660911;0.660357;0.648758;0.645767;0.637962;0.635156;0.627126;0.622892;0.618778;0.615690;0.611368;0.601604;0.599539;0.594274;0.585989;0.582920;0.577173;0.573603;0.565590;0.563114
0.572014;0.568805;0.576560;0.580880;0.582838;0.590046;0.601302;0.600103;0.606721;0.609599;0.614928;0.624230;0.629996;0.631825;0.642283;0.650509;0.658823;0.662682;0.662856;0.667782;0.680296;0.678969;0.685304;0.695774;0.695555;0.704159;0.710626;0.713635;0.719469;0.726571;0.727062;0.732585;0.738877;0.737746;0.735558;0.743423;0.744950;0.745987;0.747834;0.742697;0.749262;0.747135;0.748341;0.743430;0.744260;0.739755;0.743494;0.734664;0.739754;0.734923;0.732565;0.731553;0.727680;0.720315;0.714861;0.714297;0.707049;0.707980;0.701463;0.692849;0.693357;0.691509;0.680417;0.682400;0.672856;0.674713;0.669079;0.659899;0.663114;0.654610;0.651473;0.642978;0.648262;0.643486;0.637903;0.631990;0.634327;0.629262;0.628606;0.624234;0.626607;0.624558;0.622195;0.618314;0.621200;0.615839;0.620637;0.621359;0.619233;0.625305;0.624504;0.621278;0.621875;0.629331;0.625374;0.626956;0.630017;0.639718;0.636040;0.637813;0.640745;0.647805;0.643416;0.652287;0.654902;0.653647;0.662359;0.659822;0.663179;0.664838;0.663886;0.670478;0.674546;0.672797;0.678441;0.676933;0.680390;0.683840;0.682874;0.688419;0.687081;0.686675;0.686171;0.687086;0.695102;0.690695;0.691225;0.690094;0.693399;0.692986;0.688396;0.692177;0.691996;0.690775;0.693652;0.687707;0.687121;0.689718;0.683413;0.690597;0.686149;0.680529;0.682044;0.676114;0.678843;0.675097;0.673431;0.675812;0.673482;0.667912;0.665063;0.662803;0.660024;0.658302;0.655510;0.653804;0.649181;0.649033;0.648637;0.645828;0.637979;0.641441;0.639001;0.632764;0.634566;0.625446;0.625880;0.619935;0.620639;0.613954;0.610947;0.615163;0.602612;0.601114;0.598635;0.595571;0.592720;0.589307;0.587423;0.587051;0.583094;0.576224;0.576050;0.568067;0.565647;0.570774;0.569231;0.563654;0.561425;0.555241;0.550561;0.549112;0.548986;0.550409;0.548313;0.543507;0.539791;0.539457;0.540867;0.529759
0.507810;0.505643;0.501398;0.504800;0.507058;0.508322;0.507155;0.509277;0.507408;0.510017;0.513050;0.509401;0.514511;0.513884;0.515463;0.521006;0.520125;0.527870;0.523701;0.531188;0.530825;0.535581;0.531717;0.536842;0.541713;0.545571;0.549875;0.548491;0.556329;0.557817;0.567478;0.573038;0.575920;0.576678;0.589149;0.593693;0.600338;0.608912;0.609253;0.615207;0.627313;0.631043;0.644678;0.649978;0.662310;0.665722;0.670189;0.682527;0.695871;0.701434;0.712831;0.728250;0.736349;0.745193;0.754869;0.763417;0.771277;0.781575;0.794232;0.803833;0.817512;0.823765;0.829585;0.837095;0.851795;0.862399;0.871492;0.878452;0.882962;0.885330;0.897674;0.906089;0.912685;0.921050;0.922117;0.919474;0.925554;0.929693;0.930201;0.935797;0.932316;0.931643;0.929552;0.931454;0.929028;0.925212;0.927403;0.922818;0.913918;0.909729;0.903190;0.900947;0.892416;0.887326;0.883886;0.872583;0.865557;0.858486;0.849816;0.839271;0.829882;0.819848;0.816933;0.803474;0.795181;0.792935;0.779421;0.765238;0.760111;0.750825;0.740462;0.731950;0.721658;0.715950;0.705441;0.698905;0.688934;0.681189;0.676551;0.666096;0.662470;0.648586;0.647092;0.638801;0.637059;0.632682;0.624285;0.616832;0.613860;0.609100;0.605535;0.601533;0.591295;0.583600;0.586172;0.580636;0.581937;0.579847;0.573659;0.572906;0.567162;0.570177;0.561060;0.561654;0.562390;0.555788;0.557634;0.553557;0.553304;0.545411;0.546583;0.543717;0.543984;0.541034;0.544840;0.539500;0.535078;0.538228;0.541061;0.535198;0.532470;0.534523;0.530923;0.532438;0.534902;0.531313;0.530620;0.528238;0.524035;0.524987;0.523943;0.522418;0.522911;0.521201;0.520484;0.521943;0.518772;0.513489;0.517466;0.519742;0.518645;0.511661;0.511925;0.513919;0.513886;0.505988;0.515787;0.508860;0.508015;0.504666;0.511343;0.508475;0.508051;0.500642;0.504008;0.502532;0.498844;0.502639;0.502550;0.504030
0.573414;0.580022;0.582343;0.593278;0.598182;0.605472;0.604874;0.613196;0.622470;0.627874;0.636746;0.637555;0.644664;0.651002;0.659155;0.671264;0.678515;0.681532;0.687102;0.698882;0.699968;0.708502;0.716359;0.723098;0.726742;0.734890;0.746785;0.751660;0.749695;0.760524;0.768188;0.770656;0.779435;0.778253;0.787400;0.790724;0.794252;0.798864;0.799287;0.803830;0.810132;0.809045;0.814423;0.810080;0.815563;0.815576;0.819664;0.822004;0.816723;0.817885;0.819153;0.820954;0.818803;0.816778;0.814692;0.814844;0.804098;0.809589;0.809461;0.804823;0.800215;0.798628;0.794643;0.793865;0.788629;0.785990;0.782535;0.779661;0.775124;0.767637;0.766371;0.761477;0.761438;0.753438;0.754322;0.743174;0.748343;0.737668;0.728628;0.728147;0.721700;0.723321;0.715591;0.710177;0.704977;0.703233;0.699139;0.693957;0.689133;0.679646;0.675919;0.671022;0.670115;0.672263;0.661835;0.657909;0.646611;0.642667;0.641894;0.635311;0.630613;0.627235;0.627163;0.622861;0.612446;0.614786;0.611773;0.608455;0.600021;0.601116;0.594101;0.597943;0.594110;0.589546;0.582130;0.584758;0.580957;0.575730;0.578131;0.574003;0.579460;0.570966;0.574128;0.568858;0.569630;0.578010;0.565123;0.570857;0.565962;0.567485;0.570337;0.569568;0.566284;0.574420;0.567999;0.568012;0.570178;0.567088;0.571323;0.571444;0.573958;0.574081;0.575378;0.573976;0.575918;0.578932;0.578493;0.576835;0.580733;0.581498;0.582042;0.584701;0.578357;0.576225;0.584583;0.581727;0.580285;0.582184;0.583210;0.581852;0.580389;0.580728;0.581166;0.575292;0.581656;0.581096;0.575667;0.575452;0.573502;0.576247;0.570344;0.571131;0.565821;0.568153;0.565645;0.562820;0.564360;0.561547;0.554301;0.555711;0.555686;0.552675;0.551866;0.551490;0.551351;0.540621;0.544024;0.543882;0.536843;0.541111;0.537178;0.531982;0.533827;0.532364;0.529099;0.527631;0.525653;0.523257;0.523862;0.523904
0.567481;0.569978;0.574904;0.579147;0.586733;0.590058;0.593918;0.592235;0.606150;0.607745;0.609247;0.619259;0.628681;0.634760;0.633444;0.647310;0.653017;0.655567;0.665890;0.665228;0.669055;0.677513;0.683427;0.689190;0.694958;0.699610;0.702870;0.709791;0.713971;0.717739;0.718696;0.724218;0.724308;0.732111;0.734896;0.737187;0.736476;0.741564;0.743079;0.745619;0.741618;0.741382;0.740120;0.742314;0.745788;0.746496;0.741090;0.739203;0.735514;0.735435;0.737849;0.730679;0.728204;0.724460;0.719882;0.715546;0.712745;0.709170;0.708321;0.705240;0.698363;0.700205;0.694665;0.694828;0.683697;0.681445;0.684508;0.680391;0.671922;0.670900;0.667152;0.663608;0.664387;0.661902;0.658444;0.656025;0.654388;0.653680;0.656982;0.652741;0.649632;0.650383;0.656440;0.653005;0.652970;0.654179;0.653157;0.657842;0.661955;0.663517;0.659073;0.666608;0.665942;0.667135;0.676739;0.675560;0.682268;0.684098;0.686710;0.688321;0.695383;0.694487;0.697271;0.697783;0.699139;0.710660;0.713016;0.714202;0.712267;0.716673;0.721938;0.719102;0.723247;0.726116;0.722578;0.724297;0.728832;0.729398;0.730517;0.729321;0.731081;0.729372;0.728309;0.725278;0.717496;0.723680;0.718835;0.717886;0.714016;0.707537;0.704226;0.705264;0.702539;0.695963;0.692624;0.686795;0.682227;0.678662;0.673942;0.667728;0.660881;0.658520;0.653794;0.650453;0.648564;0.635031;0.629376;0.624436;0.623313;0.616230;0.609852;0.611008;0.603014;0.597353;0.596280;0.584738;0.583170;0.576528;0.569427;0.570766;0.568272;0.567620;0.556074;0.555090;0.551371;0.545469;0.546298;0.538682;0.539769;0.536450;0.535670;0.531370;0.529501;0.534216;0.528104;0.520939;0.523540;0.521006;0.518456;0.513858;0.516593;0.516787;0.514691;0.508726;0.510863;0.506661;0.508175;0.507470;0.502925;0.501806;0.508051;0.501341;0.500820;0.501924;0.499054;0.499565;0.496511;0.495385;0.499117;0.493463
0.526927;0.529050;0.526525;0.533018;0.532831;0.529192;0.538266;0.539657;0.539442;0.546143;0.549544;0.547628;0.551011;0.555059;0.561788;0.562311;0.564718;0.570475;0.570938;0.582785;0.581651;0.582179;0.584546;0.588324;0.591705;0.597729;0.599722;0.607072;0.608226;0.616541;0.622680;0.626890;0.632071;0.638624;0.637563;0.644743;0.653521;0.655695;0.662865;0.673542;0.676547;0.678085;0.688428;0.693613;0.697504;0.705202;0.710949;0.713303;0.722818;0.729531;0.736258;0.746099;0.750028;0.754553;0.757536;0.770167;0.773829;0.779600;0.786882;0.793398;0.794519;0.805518;0.810737;0.814056;0.822630;0.827225;0.834931;0.833847;0.839313;0.839505;0.847787;0.848650;0.849513;0.859203;0.861201;0.860311;0.862231;0.863983;0.863920;0.864162;0.864793;0.865657;0.863763;0.861472;0.861784;0.856912;0.861342;0.849345;0.847875;0.847055;0.845106;0.840045;0.834043;0.827203;0.824109;0.817304;0.812256;0.809220;0.801741;0.796917;0.788896;0.785442;0.778307;0.770879;0.764218;0.757400;0.757786;0.746474;0.738733;0.732299;0.727283;0.721862;0.714818;0.704375;0.702551;0.696119;0.690628;0.683640;0.679737;0.671316;0.669047;0.663111;0.655482;0.652040;0.647132;0.644478;0.637385;0.631694;0.623177;0.627453;0.622694;0.616075;0.610784;0.610605;0.604427;0.604766;0.598558;0.594338;0.586293;0.587432;0.583657;0.585671;0.578302;0.576483;0.575495;0.571754;0.561598;0.566394;0.563235;0.560889;0.557625;0.557618;0.553173;0.552615;0.551266;0.551778;0.547056;0.547065;0.541880;0.543744;0.539612;0.537479;0.531043;0.534759;0.533521;0.532033;0.532037;0.527677;0.530259;0.527648;0.527858;0.528070;0.522156;0.523084;0.519023;0.523848;0.520019;0.525114;0.514987;0.515771;0.512567;0.517034;0.517322;0.512676;0.514250;0.511335;0.514542;0.513743;0.511892;0.513302;0.510066;0.504931;0.509900;0.506370;0.506787;0.506576;0.508843;0.503897;0.506622;0.503618
0.508823;0.512257;0.508629;0.513586;0.510931;0.514459;0.515531;0.513321;0.514514;0.516731;0.517604;0.516029;0.522858;0.523324;0.522694;0.524686;0.526265;0.527350;0.533096;0.531345;0.531496;0.531853;0.536054;0.535574;0.536620;0.535732;0.541272;0.544740;0.547347;0.541522;0.545868;0.548782;0.547044;0.555412;0.548526;0.554321;0.553430;0.557277;0.562035;0.561527;0.570581;0.566023;0.572901;0.576149;0.569720;0.576845;0.578048;0.581273;0.583321;0.581627;0.589647;0.587217;0.594764;0.596686;0.596609;0.595338;0.599765;0.600884;0.603842;0.609216;0.608215;0.610479;0.614581;0.618803;0.618855;0.617498;0.614688;0.618733;0.618585;0.620751;0.619742;0.625485;0.621362;0.630164;0.624717;0.624481;0.627566;0.625524;0.630515;0.623614;0.625316;0.626631;0.625238;0.627409;0.626068;0.622525;0.624721;0.626064;0.623130;0.620543;0.617767;0.618431;0.618453;0.617019;0.612393;0.612456;0.616150;0.614422;0.607811;0.613088;0.610811;0.612887;0.612746;0.610262;0.608442;0.608546;0.607495;0.612673;0.609406;0.610590;0.611241;0.617739;0.615554;0.616634;0.624096;0.625842;0.623622;0.629511;0.632854;0.637839;0.642502;0.646203;0.650634;0.658573;0.670076;0.669555;0.675799;0.684435;0.689950;0.697769;0.702811;0.710509;0.718847;0.726675;0.739332;0.742901;0.750734;0.757583;0.764796;0.776150;0.778329;0.790825;0.796801;0.802161;0.816284;0.815885;0.824114;0.831381;0.834517;0.839596;0.843964;0.853002;0.856672;0.858185;0.863125;0.864172;0.869102;0.867527;0.865086;0.872975;0.869023;0.867315;0.864104;0.864247;0.860384;0.862509;0.856027;0.846825;0.849512;0.842892;0.834805;0.835143;0.824570;0.817726;0.810274;0.802747;0.799018;0.786421;0.778765;0.773014;0.762596;0.756310;0.742637;0.738642;0.725778;0.725153;0.713651;0.707471;0.695557;0.686484;0.673254;0.674666;0.661595;0.654957;0.645779;0.641621;0.638696;0.624996;0.617513;0.616826
0.538584;0.536861;0.539569;0.534830;0.540472;0.547223;0.547752;0.550151;0.552148;0.554265;0.555668;0.561762;0.569493;0.564049;0.572573;0.578135;0.578678;0.580067;0.588375;0.594110;0.593363;0.598936;0.604975;0.607383;0.613596;0.617947;0.619702;0.621214;0.630599;0.633716;0.632468;0.637406;0.646172;0.645617;0.655052;0.659089;0.667040;0.666092;0.671418;0.679582;0.679040;0.685705;0.690490;0.695901;0.700781;0.703028;0.709377;0.712364;0.718488;0.719835;0.721093;0.731305;0.733709;0.739444;0.747253;0.747835;0.751647;0.755072;0.765154;0.765408;0.765575;0.770032;0.775618;0.774320;0.780760;0.786748;0.784105;0.784596;0.784507;0.793799;0.791112;0.795825;0.793770;0.795987;0.801200;0.794773;0.794592;0.794855;0.799747;0.794633;0.790539;0.796152;0.785540;0.787065;0.786098;0.787039;0.778743;0.775563;0.771814;0.770759;0.764714;0.763896;0.760130;0.755688;0.749103;0.744966;0.735740;0.732841;0.724873;0.727269;0.718766;0.714024;0.706544;0.706775;0.695726;0.696475;0.686820;0.682475;0.679051;0.676232;0.669674;0.663098;0.664277;0.659283;0.653178;0.653326;0.648175;0.641999;0.641789;0.634721;0.634099;0.632209;0.632294;0.623344;0.626217;0.625729;0.623742;0.624504;0.620738;0.620575;0.619307;0.623324;0.620497;0.616568;0.617703;0.621221;0.618733;0.618917;0.619142;0.620809;0.620207;0.620875;0.624514;0.623215;0.620665;0.624924;0.622198;0.620009;0.622694;0.624526;0.622725;0.623486;0.622452;0.623046;0.625351;0.627602;0.625970;0.626339;0.622523;0.620641;0.622261;0.620504;0.620541;0.617189;0.619995;0.611656;0.609032;0.609214;0.608057;0.607262;0.610069;0.602134;0.601551;0.599920;0.596561;0.596645;0.595653;0.592083;0.587766;0.592157;0.587770;0.571531;0.578754;0.574521;0.573937;0.573303;0.567582;0.568478;0.563430;0.560906;0.558907;0.556044;0.550441;0.555729;0.546841;0.544780;0.546373;0.543471;0.538077;0.533741
0.568722;0.575515;0.576868;0.579079;0.585300;0.592039;0.596343;0.599721;0.605784;0.610967;0.621064;0.623408;0.626859;0.636001;0.641988;0.652265;0.656567;0.662257;0.667355;0.675050;0.675946;0.685600;0.690023;0.701063;0.705385;0.710360;0.717599;0.719434;0.731325;0.734582;0.740279;0.748291;0.750649;0.755178;0.761795;0.763304;0.771446;0.777663;0.775946;0.781481;0.777220;0.785182;0.792246;0.788380;0.796716;0.794054;0.796083;0.800336;0.796270;0.800719;0.794854;0.801937;0.799288;0.801890;0.798950;0.800979;0.798005;0.796556;0.795089;0.797787;0.798491;0.793436;0.785825;0.794117;0.790655;0.784794;0.781936;0.781957;0.777790;0.781950;0.774878;0.772652;0.770833;0.770090;0.766284;0.766225;0.760330;0.759486;0.757762;0.748862;0.746865;0.742067;0.742996;0.738667;0.732849;0.730654;0.729053;0.722244;0.721927;0.720756;0.713914;0.716916;0.705873;0.704363;0.704293;0.698561;0.693638;0.685946;0.686236;0.685986;0.679311;0.674478;0.672175;0.665897;0.665493;0.660598;0.660424;0.660804;0.653513;0.651552;0.647614;0.644974;0.641398;0.638337;0.634629;0.631643;0.628320;0.626238;0.621928;0.620896;0.614208;0.617183;0.615037;0.609111;0.607009;0.609198;0.603728;0.602403;0.598087;0.601486;0.592015;0.593316;0.590938;0.591111;0.588221;0.586522;0.579830;0.581615;0.578220;0.578055;0.572768;0.572551;0.573838;0.573862;0.569789;0.571134;0.563975;0.566393;0.564416;0.564168;0.562110;0.560716;0.554598;0.561147;0.555126;0.556254;0.556723;0.551120;0.550063;0.549783;0.550542;0.542804;0.543083;0.541222;0.545622;0.541734;0.538846;0.539988;0.540852;0.533707;0.536900;0.530905;0.531597;0.529295;0.530159;0.527827;0.530651;0.527030;0.527146;0.528213;0.524867;0.523840;0.520631;0.517361;0.516419;0.520072;0.512773;0.521010;0.515163;0.512949;0.514304;0.508151;0.516114;0.508663;0.511348;0.511392;0.506564;0.507656;0.503609;0.506880
0.516192;0.521734;0.523309;0.521775;0.529328;0.526359;0.529312;0.533483;0.531864;0.535242;0.538002;0.536955;0.543990;0.546795;0.547247;0.543483;0.552342;0.556032;0.554936;0.558047;0.561731;0.565844;0.568114;0.568253;0.572085;0.576019;0.582502;0.585069;0.579731;0.590103;0.589774;0.595356;0.599826;0.600128;0.606395;0.611797;0.615178;0.620625;0.623367;0.628158;0.629240;0.640251;0.643351;0.645472;0.647630;0.650419;0.657389;0.663522;0.670821;0.666670;0.678855;0.681772;0.686384;0.694394;0.696679;0.693061;0.702925;0.707200;0.712320;0.718069;0.722098;0.723579;0.732396;0.736730;0.743361;0.742712;0.744019;0.753232;0.757728;0.758992;0.764267;0.764283;0.768863;0.766001;0.770779;0.776292;0.773205;0.778495;0.783084;0.780471;0.783978;0.783368;0.783071;0.774080;0.786849;0.788263;0.785896;0.782580;0.781429;0.781413;0.779157;0.775360;0.776803;0.774292;0.772567;0.772991;0.773763;0.767800;0.766620;0.761013;0.759170;0.756367;0.756350;0.752567;0.752985;0.751865;0.746243;0.743947;0.740267;0.736288;0.732496;0.737511;0.732654;0.721822;0.722096;0.719955;0.714436;0.717066;0.712094;0.711004;0.709183;0.700163;0.702041;0.696946;0.691117;0.690959;0.689941;0.689671;0.685704;0.678650;0.679535;0.677611;0.675595;0.673562;0.666673;0.667235;0.663010;0.662006;0.661803;0.659463;0.659566;0.650343;0.647526;0.648507;0.648998;0.641160;0.639932;0.634657;0.639684;0.632065;0.628946;0.625871;0.624773;0.625392;0.619267;0.618839;0.620691;0.612330;0.609522;0.613922;0.608176;0.601563;0.602793;0.601425;0.597366;0.596681;0.593459;0.590667;0.587734;0.585516;0.586019;0.578753;0.576083;0.578270;0.570364;0.569979;0.569434;0.559344;0.566014;0.559080;0.554686;0.550952;0.556207;0.544936;0.548499;0.544938;0.540509;0.541195;0.537610;0.537470;0.534625;0.533374;0.527293;0.530411;0.529237;0.519959;0.516467;0.516682;0.523334;0.517029
0.568675;0.577036;0.580454;0.586234;0.587618;0.596687;0.599871;0.607275;0.614534;0.613381;0.625275;0.636299;0.638497;0.643366;0.655388;0.659138;0.659701;0.670054;0.671672;0.678187;0.682855;0.690683;0.698712;0.701630;0.713132;0.713577;0.716876;0.727846;0.730486;0.734191;0.739017;0.743240;0.751412;0.745038;0.750928;0.758362;0.752028;0.752110;0.757811;0.756716;0.754417;0.758439;0.752830;0.757488;0.753290;0.750040;0.751634;0.750772;0.745366;0.744279;0.739636;0.736956;0.730099;0.727139;0.725105;0.717532;0.719237;0.710258;0.702188;0.699856;0.690208;0.686747;0.682967;0.671090;0.672432;0.664072;0.663102;0.656108;0.645259;0.638093;0.636446;0.629471;0.626816;0.615142;0.613926;0.612717;0.606784;0.603934;0.600188;0.597375;0.589355;0.589134;0.583229;0.582947;0.574270;0.574448;0.575132;0.569829;0.566807;0.562729;0.563445;0.562665;0.560213;0.561675;0.557508;0.556725;0.560881;0.562187;0.559465;0.558354;0.557769;0.558087;0.563563;0.556369;0.565419;0.559640;0.561142;0.567987;0.571232;0.569694;0.569483;0.577022;0.578647;0.580706;0.580271;0.579898;0.589178;0.588422;0.594644;0.594975;0.598530;0.601537;0.599748;0.608474;0.611628;0.614987;0.618622;0.628245;0.626350;0.632728;0.637647;0.636355;0.648795;0.648910;0.653205;0.661133;0.658795;0.664576;0.668878;0.670794;0.675936;0.681773;0.684103;0.686784;0.689773;0.697231;0.693589;0.697550;0.701405;0.702159;0.705138;0.704895;0.708778;0.709328;0.713823;0.711776;0.711941;0.713716;0.715004;0.711319;0.711612;0.708603;0.709302;0.705309;0.707283;0.696988;0.697888;0.694746;0.698263;0.691939;0.685779;0.685998;0.682194;0.671436;0.669866;0.666919;0.661607;0.655949;0.649354;0.646473;0.642549;0.643669;0.636737;0.628313;0.624412;0.619354;0.615209;0.610392;0.602297;0.601683;0.592401;0.586404;0.584496;0.582701;0.577647;0.570229;0.567832;0.563891;0.561322;0.555061
0.615009;0.624397;0.629481;0.642566;0.645681;0.652772;0.659433;0.672587;0.681146;0.693160;0.699364;0.706802;0.721721;0.732719;0.741982;0.749009;0.759040;0.772514;0.776887;0.789462;0.799708;0.812248;0.813766;0.828551;0.841377;0.846883;0.850771;0.857086;0.867783;0.871754;0.875998;0.886391;0.893236;0.895066;0.901644;0.906646;0.906775;0.910055;0.910048;0.911406;0.909993;0.908618;0.905005;0.909630;0.907345;0.901419;0.903710;0.892512;0.892124;0.886291;0.879330;0.875203;0.867838;0.861670;0.856540;0.843990;0.833240;0.831206;0.819704;0.807315;0.796519;0.790994;0.781042;0.771901;0.763930;0.753671;0.744691;0.734005;0.722038;0.712280;0.703766;0.690874;0.688946;0.677881;0.674568;0.664357;0.656517;0.653294;0.637766;0.632878;0.627753;0.619286;0.613981;0.607259;0.605747;0.600650;0.594350;0.590051;0.585642;0.578729;0.576247;0.575950;0.571651;0.571031;0.566373;0.567677;0.565965;0.559412;0.561091;0.563350;0.555489;0.555064;0.558444;0.552654;0.559277;0.555136;0.556655;0.555888;0.553183;0.556377;0.554561;0.558096;0.553349;0.556108;0.553492;0.557430;0.556089;0.554568;0.552902;0.556568;0.559799;0.558853;0.551084;0.556530;0.555052;0.556404;0.555808;0.560120;0.561474;0.558231;0.557325;0.555807;0.561730;0.555493;0.560567;0.557090;0.560050;0.558672;0.558990;0.560092;0.557016;0.557879;0.557838;0.560840;0.559636;0.552426;0.557896;0.559700;0.559067;0.558065;0.557193;0.553548;0.552545;0.556991;0.552923;0.552934;0.554386;0.556025;0.552373;0.552164;0.549456;0.552590;0.551067;0.547662;0.543146;0.544589;0.545916;0.541784;0.540067;0.539956;0.540897;0.538162;0.540412;0.538201;0.533467;0.535341;0.536764;0.529003;0.526952;0.531321;0.528495;0.526307;0.524121;0.526739;0.518279;0.520358;0.520411;0.525258;0.519480;0.519693;0.516328;0.511524;0.511637;0.511068;0.513120;0.511817;0.515539;0.515514;0.507841;0.506474
0.543292;0.541320;0.547767;0.546107;0.547608;0.551958;0.556803;0.559204;0.561840;0.565289;0.568328;0.570372;0.581345;0.579220;0.593444;0.590344;0.592159;0.595102;0.605297;0.609696;0.612913;0.618148;0.622646;0.627623;0.634674;0.636260;0.632588;0.650389;0.653212;0.653594;0.659749;0.665444;0.667850;0.677660;0.682850;0.683628;0.689993;0.691615;0.701772;0.703514;0.713073;0.714252;0.717994;0.723313;0.728238;0.738601;0.739501;0.744840;0.745967;0.753079;0.759279;0.764076;0.762448;0.768951;0.772120;0.778867;0.778914;0.788043;0.788428;0.794597;0.789576;0.798908;0.802264;0.810602;0.805792;0.808285;0.811535;0.812547;0.816775;0.813489;0.820053;0.819151;0.817045;0.820583;0.820550;0.824509;0.817653;0.818997;0.820236;0.815337;0.820350;0.818985;0.815829;0.813078;0.813007;0.805362;0.800378;0.796506;0.789511;0.792900;0.784008;0.779619;0.776248;0.767442;0.766278;0.758315;0.756782;0.746946;0.746500;0.738266;0.733409;0.728466;0.718018;0.714887;0.707499;0.702379;0.694328;0.691168;0.684145;0.679538;0.675347;0.671269;0.666907;0.657423;0.651384;0.647988;0.645654;0.643316;0.636638;0.634724;0.626625;0.627469;0.617032;0.614138;0.613396;0.606752;0.604809;0.605839;0.601177;0.598947;0.597251;0.598506;0.594358;0.592315;0.590008;0.589862;0.587765;0.583929;0.581733;0.578542;0.582346;0.581081;0.580965;0.575402;0.577762;0.580499;0.570729;0.572627;0.575626;0.573840;0.571875;0.573166;0.573484;0.566767;0.566223;0.568111;0.567826;0.568328;0.566253;0.565910;0.564248;0.560831;0.561152;0.556327;0.562983;0.559327;0.558244;0.557774;0.553957;0.553163;0.552898;0.553777;0.550377;0.549928;0.547065;0.547794;0.545593;0.543058;0.542670;0.541388;0.535789;0.530892;0.534642;0.531804;0.533401;0.529253;0.527490;0.528074;0.527411;0.521013;0.521622;0.517711;0.517779;0.517495;0.515565;0.522700;0.515319;0.514780;0.509523;0.515786
0.584566;0.587588;0.592604;0.603237;0.604712;0.609054;0.613072;0.625435;0.628964;0.638373;0.643335;0.650127;0.663699;0.671621;0.669068;0.682115;0.691112;0.700077;0.703977;0.706801;0.722722;0.722376;0.733075;0.744238;0.749498;0.755557;0.763037;0.767269;0.773540;0.777256;0.782191;0.789005;0.794558;0.799580;0.801241;0.807590;0.813880;0.818116;0.818153;0.812861;0.819568;0.823894;0.820482;0.821618;0.825366;0.822174;0.823380;0.819806;0.817357;0.817537;0.816536;0.813742;0.807204;0.805761;0.806362;0.799651;0.797821;0.792444;0.787174;0.787071;0.781666;0.778542;0.772846;0.768792;0.764150;0.754430;0.753987;0.749339;0.750877;0.734675;0.741313;0.725312;0.726513;0.722221;0.715089;0.710320;0.707352;0.708545;0.705071;0.700043;0.693846;0.689304;0.687352;0.683539;0.677436;0.682840;0.674698;0.674740;0.667087;0.670818;0.672708;0.664630;0.663658;0.661987;0.654673;0.649779;0.655368;0.653113;0.649333;0.650170;0.647116;0.650230;0.648481;0.646349;0.644295;0.644052;0.640320;0.643024;0.639500;0.636753;0.635346;0.635962;0.636619;0.632542;0.631950;0.630938;0.632895;0.626994;0.631111;0.625631;0.624882;0.620328;0.621298;0.620103;0.619747;0.615458;0.617805;0.614419;0.616994;0.609579;0.611329;0.611219;0.601959;0.606319;0.607855;0.599682;0.597567;0.598636;0.593098;0.592455;0.591118;0.584694;0.582239;0.585567;0.580455;0.581430;0.580263;0.573154;0.571516;0.570479;0.567031;0.566083;0.571719;0.565509;0.560996;0.559083;0.557345;0.551841;0.555198;0.551208;0.551270;0.548039;0.543950;0.546326;0.545498;0.538106;0.538910;0.538598;0.536959;0.540049;0.536564;0.539944;0.533458;0.536813;0.531607;0.530175;0.529937;0.525691;0.527955;0.526842;0.528426;0.525386;0.520718;0.520575;0.522202;0.516901;0.516625;0.515351;0.520046;0.513837;0.512217;0.517703;0.510371;0.508966;0.513167;0.510041;0.512394;0.507254;0.509720;0.511132
0.516179;0.512872;0.515743;0.519270;0.514285;0.520592;0.516441;0.520675;0.522321;0.526082;0.525825;0.528422;0.526981;0.526718;0.530700;0.533304;0.535608;0.537433;0.533972;0.540770;0.539328;0.536415;0.548288;0.548757;0.553736;0.550214;0.558174;0.559822;0.557118;0.562642;0.564942;0.567269;0.564300;0.573276;0.573049;0.578663;0.583159;0.576515;0.585020;0.585630;0.588430;0.598508;0.597507;0.599557;0.605629;0.603052;0.613548;0.620748;0.621589;0.620958;0.627982;0.625993;0.635239;0.635203;0.643448;0.638760;0.648340;0.651670;0.656516;0.660434;0.666873;0.668784;0.673283;0.679193;0.679782;0.680140;0.690885;0.691474;0.695431;0.695274;0.701840;0.703370;0.704694;0.708513;0.711715;0.715139;0.717522;0.721140;0.723827;0.725844;0.726564;0.731567;0.736241;0.732656;0.740047;0.735255;0.743020;0.742206;0.746703;0.747096;0.746891;0.745696;0.746033;0.754928;0.746560;0.753055;0.757107;0.749305;0.755407;0.754268;0.752806;0.754166;0.753516;0.753906;0.753464;0.750703;0.751218;0.749304;0.754174;0.750793;0.754069;0.754973;0.755497;0.753580;0.750813;0.756973;0.747034;0.751999;0.750170;0.748444;0.744633;0.745408;0.742683;0.743789;0.746689;0.741529;0.737809;0.739454;0.738601;0.737579;0.732641;0.734809;0.729449;0.735925;0.729476;0.727553;0.724870;0.727951;0.722288;0.719248;0.719158;0.715368;0.713418;0.712103;0.710263;0.707948;0.707643;0.703878;0.702295;0.701412;0.696951;0.691988;0.690580;0.689952;0.689153;0.683355;0.677460;0.671577;0.669878;0.671948;0.668481;0.665270;0.661538;0.660033;0.655330;0.648247;0.654530;0.648661;0.642377;0.637541;0.632606;0.626221;0.630480;0.620582;0.617219;0.619503;0.619500;0.607829;0.605701;0.599614;0.597392;0.594417;0.589837;0.585056;0.576446;0.577490;0.576525;0.570121;0.566820;0.559658;0.564721;0.562389;0.551838;0.548340;0.546623;0.547726;0.543754;0.541804;0.539487;0.538481
0.538544;0.538633;0.543311;0.540933;0.540985;0.548224;0.553010;0.556962;0.554004;0.561102;0.561299;0.564132;0.567138;0.574503;0.574433;0.578659;0.588645;0.585778;0.588758;0.585184;0.593060;0.594416;0.596184;0.605928;0.608212;0.614252;0.615177;0.615276;0.614109;0.626460;0.620671;0.625355;0.628123;0.624102;0.628418;0.635290;0.632326;0.634129;0.633298;0.636686;0.634554;0.632456;0.639076;0.639127;0.633591;0.635894;0.631672;0.634379;0.631077;0.628589;0.628034;0.631172;0.629811;0.625065;0.628200;0.627237;0.621793;0.621280;0.618940;0.622677;0.621447;0.614416;0.614414;0.613766;0.613464;0.619467;0.610271;0.615113;0.609685;0.612084;0.610742;0.613376;0.613166;0.614567;0.614309;0.616377;0.615502;0.623637;0.629545;0.623293;0.626803;0.630686;0.633824;0.635724;0.641811;0.646954;0.645931;0.653698;0.664075;0.670074;0.669727;0.678945;0.676852;0.684891;0.690096;0.694067;0.704862;0.704102;0.718343;0.722760;0.723011;0.735282;0.737704;0.744196;0.749705;0.753351;0.761587;0.766440;0.773324;0.776963;0.788079;0.785937;0.790754;0.795294;0.797921;0.797691;0.803870;0.799157;0.804200;0.805274;0.803987;0.809506;0.808426;0.809575;0.805797;0.804608;0.806251;0.806775;0.797682;0.805569;0.795821;0.797236;0.791494;0.790013;0.785573;0.783964;0.778941;0.776016;0.769453;0.763057;0.764226;0.754678;0.752131;0.748388;0.741550;0.737376;0.731725;0.727168;0.719292;0.718282;0.709370;0.701669;0.692376;0.689450;0.684886;0.680546;0.677903;0.669509;0.663614;0.660070;0.658971;0.655827;0.652084;0.640268;0.640018;0.630328;0.633945;0.624017;0.622638;0.617626;0.612461;0.611539;0.604154;0.599103;0.591808;0.590222;0.588747;0.583907;0.582923;0.581219;0.573235;0.570597;0.568260;0.559919;0.562436;0.561130;0.553711;0.552666;0.553302;0.547400;0.543914;0.546800;0.543258;0.538619;0.533744;0.530330;0.529281;0.536033;0.526542;0.528521
0.513212;0.505462;0.511515;0.509780;0.514455;0.511632;0.516650;0.514007;0.516981;0.514602;0.519149;0.517639;0.524280;0.518167;0.518030;0.529577;0.520080;0.525244;0.529801;0.529402;0.531086;0.534172;0.535266;0.535624;0.541033;0.543896;0.543834;0.546089;0.548529;0.552295;0.558735;0.557431;0.564051;0.565932;0.562555;0.569721;0.574719;0.577268;0.578909;0.583619;0.590047;0.596592;0.601975;0.598940;0.608735;0.609959;0.617775;0.621097;0.622080;0.635819;0.633895;0.639409;0.643500;0.653968;0.654208;0.661990;0.664955;0.671712;0.679380;0.687435;0.689628;0.701590;0.694983;0.710603;0.718397;0.716613;0.720551;0.725431;0.742013;0.740457;0.743378;0.751549;0.755548;0.759865;0.766030;0.770165;0.771786;0.778367;0.780129;0.783395;0.791891;0.795864;0.796273;0.805772;0.805826;0.805257;0.809862;0.813498;0.814657;0.821857;0.821026;0.821076;0.828699;0.824439;0.830440;0.829463;0.834222;0.832391;0.835823;0.835363;0.831438;0.837134;0.839062;0.840974;0.837320;0.835679;0.832584;0.833895;0.832426;0.831811;0.836277;0.825688;0.825647;0.828628;0.826242;0.826061;0.817130;0.816102;0.814987;0.800979;0.806587;0.795259;0.793081;0.788442;0.787884;0.781248;0.778536;0.769081;0.763542;0.765296;0.754510;0.750052;0.743367;0.740792;0.732272;0.727770;0.721182;0.713111;0.707011;0.698561;0.688347;0.681650;0.677773;0.672893;0.665524;0.662333;0.653675;0.644777;0.640636;0.635559;0.630972;0.627319;0.613903;0.612636;0.603991;0.600964;0.597987;0.591242;0.587245;0.582736;0.576931;0.570955;0.564421;0.567036;0.562344;0.557008;0.551555;0.550431;0.544655;0.543340;0.538694;0.538993;0.537297;0.534241;0.533264;0.526567;0.523525;0.526489;0.520900;0.524427;0.518053;0.518147;0.514212;0.512080;0.513125;0.513937;0.510767;0.510377;0.513189;0.507732;0.508050;0.505687;0.508391;0.503983;0.503130;0.504238;0.502640;0.503666;0.502398;0.503846
0.516872;0.518599;0.521868;0.520663;0.523922;0.522931;0.528177;0.521005;0.531923;0.534365;0.532816;0.538068;0.529911;0.532009;0.538662;0.542505;0.539086;0.543576;0.544135;0.541128;0.548558;0.549054;0.549349;0.550523;0.555205;0.556373;0.555859;0.559135;0.557910;0.557916;0.566895;0.563764;0.567873;0.564962;0.566697;0.568013;0.564044;0.571230;0.567107;0.570405;0.569427;0.570043;0.574262;0.578689;0.574616;0.573130;0.571999;0.574660;0.573884;0.578161;0.581266;0.579081;0.581428;0.582796;0.582430;0.585305;0.577637;0.583988;0.587753;0.587939;0.592848;0.590130;0.593361;0.594744;0.598574;0.593882;0.600355;0.603046;0.600211;0.607307;0.610459;0.616218;0.617235;0.624680;0.618471;0.632112;0.636521;0.640548;0.646074;0.653710;0.656660;0.665147;0.666239;0.678041;0.685055;0.691848;0.701837;0.703231;0.713025;0.727580;0.733398;0.741019;0.751783;0.757833;0.764690;0.781846;0.786659;0.792688;0.803036;0.811850;0.818396;0.824491;0.832887;0.840958;0.849629;0.856218;0.864383;0.872993;0.874719;0.882452;0.885791;0.891302;0.894043;0.903017;0.902875;0.907952;0.908215;0.912348;0.911227;0.908405;0.909800;0.915089;0.907310;0.902009;0.901479;0.896475;0.898410;0.891586;0.883594;0.881089;0.877022;0.868954;0.862098;0.856165;0.848473;0.837567;0.830640;0.818568;0.814766;0.804220;0.795829;0.787144;0.770660;0.767062;0.755887;0.747930;0.734493;0.724750;0.716852;0.706581;0.706852;0.691430;0.680854;0.676463;0.666081;0.654749;0.647766;0.641609;0.633145;0.619725;0.620888;0.614593;0.602196;0.593736;0.592221;0.584520;0.581531;0.574719;0.573914;0.562166;0.563120;0.558895;0.552609;0.553653;0.545311;0.541563;0.536159;0.539186;0.530505;0.528848;0.527377;0.526419;0.524684;0.519699;0.519767;0.517165;0.515785;0.516126;0.512142;0.515492;0.508676;0.517927;0.508383;0.510926;0.512296;0.504815;0.502691;0.511951;0.503051;0.509895
0.549713;0.549707;0.556914;0.557818;0.564978;0.568026;0.570103;0.578704;0.580970;0.580544;0.587669;0.590440;0.594125;0.603617;0.602021;0.605076;0.614632;0.619922;0.622215;0.627989;0.634181;0.633668;0.639625;0.640608;0.649909;0.651139;0.650917;0.657050;0.661320;0.664365;0.668855;0.669813;0.672387;0.671692;0.678636;0.677298;0.680545;0.679484;0.680965;0.685833;0.684236;0.684168;0.686388;0.683821;0.686057;0.679934;0.682309;0.684835;0.683100;0.681597;0.674957;0.676445;0.675513;0.677808;0.670437;0.673212;0.667681;0.669260;0.664101;0.660509;0.657624;0.659110;0.654254;0.650453;0.654961;0.646556;0.649966;0.643841;0.643450;0.640778;0.638840;0.638425;0.638754;0.637725;0.634595;0.633860;0.634991;0.635506;0.638365;0.637334;0.643129;0.639096;0.640409;0.644200;0.643625;0.644007;0.647024;0.650762;0.657642;0.661604;0.664610;0.670463;0.667932;0.669256;0.681520;0.684407;0.682969;0.687184;0.697662;0.701687;0.705925;0.705669;0.711178;0.715574;0.716753;0.723335;0.731845;0.723630;0.730873;0.741778;0.740412;0.745602;0.750468;0.749914;0.749011;0.750977;0.758571;0.754122;0.759392;0.760162;0.756858;0.759364;0.762465;0.758564;0.762083;0.762173;0.757648;0.753067;0.753932;0.749775;0.749336;0.745855;0.739913;0.739012;0.737116;0.733411;0.727908;0.727601;0.722449;0.717952;0.712090;0.707042;0.702040;0.700476;0.698984;0.691689;0.686434;0.680718;0.677711;0.672543;0.669711;0.661576;0.659658;0.648201;0.651567;0.644910;0.640855;0.635351;0.634905;0.630095;0.622777;0.620692;0.615034;0.615896;0.603659;0.605449;0.600464;0.599023;0.595124;0.589471;0.584203;0.586085;0.579445;0.577298;0.571608;0.563401;0.567028;0.561043;0.559449;0.556786;0.561840;0.553754;0.549275;0.550385;0.546867;0.538604;0.542151;0.536380;0.536090;0.536011;0.535258;0.532042;0.528401;0.529481;0.527118;0.525365;0.524788;0.518026;0.523459;0.515121
0.501516;0.503351;0.499888;0.504508;0.500201;0.506635;0.504127;0.502516;0.506968;0.505396;0.508610;0.504725;0.504708;0.512341;0.508883;0.501716;0.504620;0.510341;0.506677;0.508382;0.507525;0.509898;0.516034;0.510753;0.518311;0.511218;0.513329;0.514087;0.515624;0.517575;0.515424;0.520907;0.519811;0.517504;0.520044;0.524334;0.525007;0.526529;0.529917;0.525539;0.527740;0.533057;0.532773;0.532559;0.535615;0.541445;0.542312;0.542515;0.547930;0.549514;0.550035;0.554914;0.551940;0.555279;0.557845;0.557837;0.559816;0.559139;0.568676;0.565155;0.570912;0.575971;0.575310;0.575888;0.575627;0.578266;0.580998;0.584219;0.582933;0.588060;0.592015;0.591058;0.590945;0.588954;0.589983;0.596390;0.590078;0.594565;0.591659;0.601945;0.603727;0.600983;0.601847;0.600671;0.604401;0.598624;0.599225;0.607307;0.603037;0.609804;0.606648;0.611829;0.606017;0.609577;0.609208;0.608703;0.610473;0.606073;0.609302;0.611731;0.612485;0.612836;0.610175;0.612508;0.615997;0.616054;0.617888;0.622710;0.620698;0.628245;0.632758;0.629739;0.632673;0.634826;0.640249;0.641811;0.648608;0.649190;0.659465;0.662836;0.668515;0.670391;0.678419;0.682331;0.687840;0.689894;0.697304;0.705569;0.710484;0.724410;0.726451;0.735700;0.744434;0.751656;0.756961;0.763248;0.767335;0.778450;0.781865;0.788688;0.800850;0.808456;0.814101;0.820832;0.828521;0.828618;0.839522;0.845125;0.847277;0.852906;0.860052;0.859754;0.859608;0.866585;0.860913;0.867292;0.872438;0.869430;0.873399;0.872853;0.866981;0.870475;0.864416;0.860527;0.861536;0.858356;0.851409;0.847885;0.842042;0.834298;0.833859;0.823485;0.817325;0.806244;0.807616;0.795033;0.783103;0.779926;0.769966;0.765239;0.751399;0.740705;0.734652;0.726846;0.714441;0.702850;0.700942;0.685514;0.681358;0.668054;0.659241;0.653528;0.647886;0.638220;0.630388;0.618716;0.618879;0.606369;0.604852;0.594338
0.590984;0.593015;0.600907;0.609912;0.614109;0.622595;0.628673;0.632709;0.641781;0.647132;0.657566;0.666159;0.672319;0.679310;0.693034;0.698222;0.699931;0.712744;0.724312;0.731034;0.735719;0.746444;0.754092;0.759360;0.768802;0.775415;0.780778;0.784189;0.794187;0.797133;0.799146;0.806307;0.808395;0.819524;0.822385;0.817930;0.819214;0.825422;0.827027;0.826711;0.829809;0.829920;0.832006;0.828106;0.821255;0.827891;0.822426;0.818037;0.815215;0.811393;0.803161;0.803762;0.799149;0.796887;0.786260;0.778841;0.770893;0.761794;0.767480;0.755541;0.745952;0.740753;0.737788;0.726817;0.719722;0.712742;0.706107;0.696857;0.688687;0.685827;0.673374;0.669798;0.664295;0.655543;0.651356;0.642447;0.644021;0.633030;0.626968;0.625237;0.619676;0.612703;0.611270;0.601387;0.595349;0.591897;0.592946;0.592436;0.587527;0.580914;0.583673;0.579978;0.572114;0.577811;0.570804;0.571564;0.570289;0.567547;0.568425;0.565017;0.568964;0.570808;0.564541;0.573676;0.570924;0.569626;0.566954;0.570253;0.570396;0.569046;0.574030;0.569606;0.576225;0.574729;0.573740;0.578236;0.581409;0.580454;0.582661;0.580779;0.590481;0.587056;0.588816;0.597345;0.589361;0.595133;0.599765;0.596289;0.606170;0.604574;0.606462;0.606761;0.606505;0.611214;0.614440;0.614938;0.614395;0.615045;0.616067;0.622276;0.624642;0.621848;0.629948;0.628403;0.626422;0.629850;0.630116;0.631336;0.636356;0.634040;0.636250;0.636629;0.639334;0.637864;0.637583;0.637393;0.636078;0.637494;0.640222;0.639608;0.634444;0.636907;0.631712;0.630043;0.632736;0.627352;0.624084;0.622436;0.623990;0.621925;0.619637;0.618968;0.613880;0.615330;0.608785;0.606204;0.604351;0.600766;0.598580;0.593657;0.589664;0.589380;0.588207;0.580832;0.581009;0.577486;0.575979;0.571447;0.565232;0.560402;0.563040;0.555841;0.552022;0.552028;0.548686;0.544662;0.548630;0.543728;0.538535;0.535209
0.537296;0.537205;0.548315;0.543329;0.546675;0.550895;0.561255;0.561430;0.561253;0.563692;0.569276;0.567653;0.580979;0.572261;0.582182;0.585944;0.587927;0.594084;0.599360;0.602368;0.610443;0.609071;0.616437;0.621253;0.624919;0.632338;0.635139;0.637716;0.641647;0.641500;0.650386;0.655427;0.657654;0.658802;0.666420;0.667942;0.671398;0.673727;0.681879;0.678744;0.684132;0.692591;0.689115;0.690646;0.697325;0.702998;0.703149;0.706748;0.710014;0.709919;0.710505;0.715980;0.717231;0.715894;0.718870;0.725713;0.724317;0.728143;0.732776;0.732468;0.731951;0.735522;0.738563;0.739771;0.737073;0.741724;0.739431;0.745931;0.743344;0.745661;0.746002;0.750324;0.750481;0.750307;0.752368;0.753554;0.750216;0.755168;0.754949;0.754363;0.754208;0.751578;0.755359;0.753452;0.755264;0.759272;0.754412;0.753478;0.751935;0.753398;0.752815;0.747147;0.750250;0.750011;0.746817;0.751149;0.750181;0.745452;0.743950;0.742738;0.745572;0.742668;0.742522;0.741666;0.742395;0.741517;0.735893;0.734906;0.734546;0.730723;0.734148;0.729465;0.726621;0.726646;0.717582;0.726985;0.721972;0.715937;0.710789;0.713912;0.710308;0.707634;0.700718;0.698009;0.698609;0.696365;0.693725;0.690549;0.687107;0.686648;0.678506;0.676257;0.670209;0.671927;0.669287;0.667476;0.660639;0.657201;0.655617;0.651117;0.647446;0.640963;0.638153;0.640940;0.629976;0.627782;0.629041;0.622012;0.622312;0.616927;0.615940;0.611248;0.607793;0.603086;0.597411;0.599379;0.594163;0.589788;0.582329;0.587928;0.583724;0.580092;0.576464;0.575742;0.571191;0.572944;0.567596;0.563945;0.560971;0.561323;0.560294;0.555839;0.551105;0.551929;0.548258;0.551344;0.547895;0.543206;0.542345;0.542010;0.535132;0.542136;0.536574;0.536479;0.531909;0.532992;0.527276;0.531057;0.522104;0.523000;0.523443;0.520604;0.517640;0.517431;0.520855;0.515477;0.518233;0.518724;0.513560;0.514157
0.511094;0.508840;0.514870;0.515354;0.512312;0.514630;0.511708;0.514520;0.520040;0.519161;0.523003;0.521230;0.521130;0.520899;0.525605;0.524890;0.529238;0.531363;0.532613;0.533634;0.536453;0.541589;0.542693;0.546147;0.549559;0.554166;0.558623;0.556123;0.561120;0.565937;0.569004;0.570374;0.578853;0.581247;0.584469;0.589897;0.592772;0.596111;0.603485;0.609416;0.613654;0.617907;0.627031;0.629641;0.632407;0.634468;0.647797;0.655471;0.656838;0.667355;0.669821;0.676858;0.684541;0.690927;0.698828;0.705062;0.711878;0.713530;0.728749;0.736903;0.737585;0.743902;0.752205;0.754415;0.764004;0.771458;0.776892;0.778006;0.781990;0.783580;0.792448;0.797480;0.798064;0.798932;0.800048;0.807833;0.812451;0.809189;0.809649;0.812656;0.814914;0.809970;0.817278;0.816830;0.809351;0.809383;0.813048;0.808752;0.799166;0.801766;0.799045;0.793409;0.789393;0.787018;0.788088;0.780842;0.778333;0.769079;0.770747;0.760303;0.758656;0.750236;0.744543;0.738868;0.733098;0.731983;0.723469;0.721600;0.715548;0.713346;0.705904;0.700330;0.691888;0.694147;0.685637;0.684978;0.675280;0.676451;0.673294;0.669159;0.667180;0.664672;0.662995;0.655255;0.653999;0.657099;0.653643;0.648171;0.646153;0.642530;0.645995;0.644746;0.645323;0.641271;0.640249;0.638933;0.641248;0.642358;0.640797;0.632064;0.641495;0.641142;0.644246;0.635668;0.633755;0.637466;0.638462;0.637973;0.635256;0.634385;0.634742;0.632140;0.631129;0.635373;0.635763;0.631804;0.633435;0.630512;0.628099;0.627959;0.628544;0.628804;0.623909;0.621287;0.623306;0.618209;0.618840;0.611577;0.611043;0.609356;0.607916;0.603816;0.603808;0.597763;0.597984;0.590864;0.587349;0.584193;0.582635;0.577365;0.573669;0.573235;0.574679;0.568774;0.567030;0.561913;0.562559;0.552412;0.548952;0.549818;0.547378;0.544703;0.539553;0.540493;0.538343;0.535995;0.528148;0.530610;0.524923;0.522343
0.560489;0.567682;0.574870;0.571369;0.577195;0.582494;0.593786;0.594867;0.599239;0.607530;0.612719;0.618871;0.624935;0.629721;0.638454;0.639671;0.645019;0.650341;0.658307;0.660154;0.665631;0.676087;0.676312;0.682867;0.688900;0.695671;0.697219;0.698787;0.706737;0.713354;0.713477;0.718508;0.718882;0.718724;0.721370;0.727887;0.726900;0.731813;0.730810;0.733988;0.734520;0.733190;0.728752;0.731980;0.733265;0.733989;0.727327;0.727399;0.722511;0.724841;0.720058;0.717240;0.718303;0.712998;0.707118;0.703432;0.699624;0.690002;0.695612;0.689042;0.681010;0.676992;0.674619;0.669320;0.664665;0.657140;0.652754;0.652017;0.643024;0.638363;0.638354;0.629716;0.629199;0.619681;0.616692;0.616219;0.616801;0.612445;0.609180;0.607040;0.601532;0.600238;0.597656;0.601341;0.591836;0.587459;0.597526;0.593882;0.589878;0.590242;0.586818;0.589955;0.585972;0.588689;0.588720;0.584850;0.589071;0.587512;0.591251;0.589031;0.594084;0.594697;0.594947;0.595241;0.600017;0.597508;0.600997;0.604669;0.607026;0.602281;0.607599;0.611927;0.613014;0.616567;0.626672;0.622722;0.625949;0.625650;0.629174;0.630001;0.635661;0.639982;0.644673;0.638412;0.644906;0.646854;0.653823;0.653777;0.654655;0.659911;0.660919;0.662591;0.667704;0.669906;0.672862;0.671276;0.675856;0.676999;0.680142;0.680331;0.685245;0.685173;0.688555;0.683405;0.692978;0.695533;0.693907;0.695588;0.695836;0.694310;0.695470;0.696868;0.697454;0.695064;0.695774;0.691703;0.693554;0.693268;0.693818;0.684294;0.693629;0.687859;0.681477;0.686172;0.685516;0.680445;0.679252;0.673081;0.673973;0.668545;0.668264;0.658995;0.658603;0.648637;0.643216;0.646968;0.639423;0.636269;0.632132;0.624802;0.620921;0.615174;0.611352;0.606061;0.602059;0.600189;0.593996;0.599736;0.582498;0.584799;0.578069;0.574034;0.567084;0.562058;0.562036;0.558364;0.555777;0.547246;0.548750;0.548729
0.556886;0.561350;0.564534;0.569853;0.572130;0.574023;0.574947;0.581427;0.591543;0.592557;0.602882;0.609093;0.614235;0.612514;0.619491;0.619615;0.629032;0.636831;0.641675;0.644985;0.651770;0.651524;0.657754;0.664501;0.670195;0.676422;0.679442;0.679890;0.690241;0.689761;0.694277;0.698231;0.702340;0.705741;0.704892;0.715620;0.713772;0.716882;0.716044;0.717726;0.720471;0.717756;0.721954;0.720615;0.719367;0.718694;0.717545;0.722490;0.714192;0.722586;0.717807;0.715285;0.708228;0.707879;0.708491;0.702463;0.706899;0.703440;0.698254;0.695310;0.694322;0.689995;0.689337;0.686489;0.684030;0.678691;0.677033;0.669670;0.668286;0.670569;0.666383;0.666168;0.657891;0.652905;0.656088;0.654690;0.651690;0.654620;0.643808;0.645785;0.640352;0.644988;0.639913;0.634518;0.635597;0.638395;0.637827;0.633692;0.634843;0.636724;0.632330;0.635663;0.631933;0.637322;0.630440;0.638556;0.638100;0.637955;0.644590;0.643262;0.643522;0.644820;0.641493;0.644555;0.646922;0.647446;0.647295;0.650349;0.649105;0.652714;0.652984;0.651796;0.661687;0.658284;0.659359;0.660552;0.658836;0.661395;0.664245;0.663058;0.666054;0.666794;0.665033;0.669896;0.664803;0.670658;0.673796;0.672319;0.671667;0.675003;0.675299;0.674340;0.674095;0.676203;0.676673;0.678095;0.676323;0.674450;0.675587;0.677243;0.677256;0.680927;0.674661;0.673010;0.669282;0.678487;0.673234;0.672556;0.671797;0.668818;0.670729;0.671783;0.669128;0.662156;0.663889;0.666113;0.657810;0.660467;0.659506;0.656740;0.652594;0.650757;0.647393;0.645767;0.643790;0.641480;0.640291;0.637896;0.635452;0.633233;0.628156;0.621677;0.616451;0.617359;0.610335;0.605899;0.605848;0.604706;0.596162;0.600738;0.593223;0.593432;0.585003;0.583205;0.574580;0.573990;0.572027;0.570718;0.563113;0.560396;0.556933;0.555156;0.547485;0.554295;0.546511;0.539875;0.543145;0.537589;0.532700;0.533856
0.539085;0.542246;0.540777;0.545204;0.549560;0.548901;0.549708;0.551117;0.557385;0.560277;0.562419;0.564903;0.570104;0.571173;0.578041;0.579355;0.584594;0.590113;0.599901;0.592904;0.601122;0.603306;0.605047;0.606698;0.615246;0.617960;0.618489;0.620785;0.629039;0.630103;0.634608;0.633969;0.631417;0.640032;0.642281;0.645415;0.650508;0.648007;0.650690;0.654648;0.657656;0.656817;0.661359;0.658950;0.661147;0.668382;0.659989;0.664730;0.666728;0.669128;0.672997;0.668079;0.669816;0.671979;0.669292;0.673802;0.669552;0.671414;0.673698;0.674904;0.675630;0.674402;0.671117;0.676059;0.667075;0.674147;0.671568;0.672744;0.676345;0.671959;0.674248;0.673829;0.675237;0.676067;0.676506;0.678501;0.679222;0.680206;0.677444;0.682714;0.684003;0.682264;0.682671;0.688112;0.692709;0.687542;0.684351;0.690169;0.688004;0.696035;0.694738;0.695794;0.695000;0.702442;0.704046;0.706361;0.703297;0.710967;0.710992;0.708640;0.714886;0.716943;0.713913;0.716221;0.727406;0.722861;0.724412;0.724485;0.725456;0.730237;0.727960;0.732623;0.724969;0.731411;0.729917;0.735774;0.734735;0.732389;0.738653;0.736636;0.735336;0.733823;0.736386;0.735223;0.731508;0.731461;0.730620;0.728530;0.727164;0.726431;0.721561;0.725060;0.718635;0.719538;0.718662;0.718065;0.715235;0.710665;0.707983;0.704644;0.703550;0.701528;0.697881;0.696178;0.691649;0.689490;0.686597;0.683417;0.679394;0.681631;0.676875;0.663103;0.668650;0.664946;0.657711;0.659053;0.652989;0.651194;0.650901;0.645412;0.644333;0.637523;0.633859;0.632925;0.626260;0.625512;0.623373;0.617618;0.612217;0.609407;0.608591;0.602785;0.602980;0.600379;0.593307;0.588488;0.585192;0.585903;0.583455;0.580074;0.574714;0.566835;0.568229;0.566342;0.563269;0.556991;0.558248;0.553928;0.552559;0.548094;0.543157;0.541718;0.538849;0.536073;0.536561;0.534356;0.530430;0.530471;0.527178;0.526400
