1100;1105;1110;1115;1120;1125;1130;1135;1140;1145;1150;1155;1160;1165;1170;1175;1180;1185;1190;1195;1200;1205;1210;1215;1220;1225;1230;1235;1240;1245;1250;1255;1260;1265;1270;1275;1280;1285;1290;1295;1301;1306;1311;1316;1321;1326;1331;1336;1341;1346;1351;1356;1361;1366;1371;1376;1381;1386;1391;1396;1401;1406;1411;1416;1421;1426;1431;1436;1441;1446;1451;1456;1461;1466;1471;1476;1481;1486;1491;1496;1502;1507;1512;1517;1522;1527;1532;1537;1542;1547;1552;1557;1562;1567;1572;1577;1582;1587;1592;1597;1602;1607;1612;1617;1622;1627;1632;1637;1642;1647;1652;1657;1662;1667;1672;1677;1682;1687;1692;1697;1703;1708;1713;1718;1723;1728;1733;1738;1743;1748;1753;1758;1763;1768;1773;1778;1783;1788;1793;1798;1803;1808;1813;1818;1823;1828;1833;1838;1843;1848;1853;1858;1863;1868;1873;1878;1883;1888;1893;1898;1904;1909;1914;1919;1924;1929;1934;1939;1944;1949;1954;1959;1964;1969;1974;1979;1984;1989;1994;1999;2004;2009;2014;2019;2024;2029;2034;2039;2044;2049;2054;2059;2064;2069;2074;2079;2084;2089;2094;2100
0.533300;0.538382;0.544204;0.545424;0.550024;0.555500;0.551341;0.553822;0.560024;0.562807;0.563814;0.570949;0.574472;0.580789;0.577149;0.580493;0.591344;0.587985;0.595969;0.601187;0.602652;0.607723;0.612072;0.612757;0.620829;0.626902;0.634321;0.632526;0.634182;0.641584;0.645314;0.644024;0.647078;0.650389;0.656274;0.656623;0.664333;0.665006;0.668815;0.672163;0.671549;0.677523;0.678483;0.679042;0.687235;0.692213;0.687820;0.690615;0.695189;0.693209;0.699311;0.697515;0.700288;0.701033;0.706162;0.708904;0.704335;0.703263;0.711183;0.709839;0.712454;0.713300;0.712776;0.711999;0.714586;0.711311;0.713288;0.714986;0.715056;0.715512;0.711623;0.712146;0.711457;0.714736;0.714298;0.706576;0.709625;0.709478;0.712532;0.707412;0.703862;0.704771;0.699355;0.700633;0.699319;0.697282;0.699388;0.693049;0.693146;0.685633;0.691308;0.688661;0.686544;0.678929;0.676649;0.672164;0.671610;0.670316;0.669614;0.669366;0.661215;0.657866;0.658526;0.654785;0.651288;0.650566;0.646373;0.649766;0.649231;0.646768;0.646120;0.640856;0.645045;0.636175;0.639536;0.640279;0.636915;0.633641;0.638778;0.637207;0.634843;0.638212;0.635696;0.641075;0.641251;0.643194;0.645520;0.642580;0.640305;0.645373;0.648704;0.652518;0.650876;0.655467;0.656600;0.655693;0.659659;0.665785;0.661946;0.659903;0.665843;0.668259;0.665854;0.671627;0.677989;0.680416;0.676866;0.680798;0.683462;0.679408;0.683209;0.681429;0.687459;0.686600;0.686370;0.686052;0.687130;0.689663;0.683709;0.680704;0.684968;0.681307;0.676344;0.680931;0.679770;0.676905;0.669763;0.667090;0.668834;0.657385;0.662718;0.657184;0.652866;0.651027;0.645954;0.647613;0.638433;0.635813;0.630193;0.628224;0.625313;0.621410;0.612920;0.611724;0.607909;0.603239;0.598452;0.595667;0.587913;0.581343;0.583041;0.577262;0.574740;0.573474;0.568307;0.560876;0.557765;0.553125;0.551273;0.551164
0.518553;0.516037;0.515063;0.520889;0.519035;0.523453;0.524062;0.523215;0.526621;0.528880;0.524469;0.530542;0.538953;0.534826;0.537225;0.536609;0.538931;0.543490;0.538792;0.544354;0.552971;0.550822;0.552439;0.554185;0.562569;0.555602;0.556985;0.561142;0.565121;0.571079;0.576236;0.579801;0.577511;0.581597;0.582235;0.579959;0.589176;0.589742;0.598479;0.597524;0.598611;0.605339;0.606404;0.607949;0.614959;0.619880;0.623076;0.623711;0.626408;0.629097;0.635897;0.635960;0.640355;0.647066;0.651958;0.651871;0.656322;0.661651;0.664474;0.669249;0.675257;0.682227;0.678249;0.686350;0.687759;0.696313;0.700017;0.704314;0.705912;0.712251;0.714806;0.721168;0.718692;0.729342;0.734211;0.735052;0.745823;0.736899;0.744598;0.752303;0.748642;0.756587;0.762935;0.759890;0.769325;0.769218;0.774839;0.777155;0.777977;0.783777;0.787317;0.788450;0.791583;0.790279;0.791269;0.799379;0.797450;0.804801;0.805895;0.806751;0.817600;0.817553;0.818835;0.813714;0.819010;0.819571;0.824979;0.817270;0.820699;0.824433;0.818460;0.818955;0.819948;0.819089;0.817733;0.818417;0.814880;0.818963;0.816103;0.804043;0.803657;0.805733;0.804460;0.798582;0.798245;0.792498;0.783951;0.783664;0.777436;0.770948;0.769506;0.762287;0.757484;0.755403;0.751343;0.743349;0.735708;0.732326;0.723419;0.719120;0.709601;0.707223;0.708062;0.690889;0.688223;0.681421;0.677809;0.666149;0.660210;0.655915;0.650389;0.646938;0.638983;0.633290;0.624102;0.617575;0.622922;0.613894;0.606231;0.605553;0.598523;0.594712;0.586611;0.586486;0.584917;0.579168;0.572703;0.569554;0.567253;0.562191;0.554809;0.554731;0.553679;0.552416;0.549026;0.546837;0.543391;0.542408;0.538746;0.539661;0.533376;0.533025;0.529876;0.529359;0.532508;0.523315;0.521428;0.523438;0.524242;0.521644;0.518704;0.514315;0.518156;0.515654;0.516726;0.519325;0.515519;0.515347;0.508679;0.510385
0.509279;0.507323;0.510111;0.515514;0.508914;0.515015;0.513209;0.515819;0.518733;0.513202;0.520599;0.522852;0.521312;0.522064;0.528730;0.527601;0.528676;0.534205;0.529575;0.535821;0.530586;0.535809;0.529001;0.535213;0.539587;0.540042;0.547865;0.543938;0.548687;0.542953;0.545953;0.555194;0.556063;0.560919;0.563634;0.563806;0.565184;0.565896;0.570031;0.575302;0.574356;0.573203;0.580329;0.587095;0.584851;0.590020;0.593040;0.594734;0.603477;0.602210;0.605630;0.611537;0.612690;0.615379;0.620643;0.621399;0.627018;0.630479;0.640403;0.643376;0.645148;0.650617;0.658608;0.654946;0.662220;0.665855;0.668810;0.674490;0.681025;0.685659;0.692190;0.691997;0.697988;0.699304;0.710439;0.710350;0.714438;0.724917;0.727646;0.732952;0.739558;0.746135;0.743037;0.755377;0.757305;0.765688;0.764841;0.771352;0.773622;0.783723;0.785818;0.789138;0.798323;0.804613;0.804048;0.812618;0.815746;0.817440;0.822654;0.824044;0.833064;0.835928;0.841678;0.841907;0.845030;0.841714;0.850396;0.847895;0.853376;0.849567;0.857714;0.860202;0.862103;0.859166;0.860603;0.858296;0.859915;0.855877;0.853117;0.850403;0.848025;0.848337;0.841859;0.841409;0.836250;0.832319;0.830095;0.820165;0.817226;0.814541;0.802915;0.804398;0.796715;0.787933;0.781640;0.772645;0.765860;0.758992;0.753945;0.750786;0.736709;0.729059;0.723567;0.714826;0.706902;0.697907;0.692020;0.683598;0.675818;0.670074;0.661775;0.651209;0.644808;0.638891;0.634521;0.628005;0.618585;0.616091;0.607105;0.601080;0.599573;0.592623;0.588453;0.579963;0.578354;0.574278;0.568976;0.567724;0.560933;0.555083;0.547921;0.547716;0.542095;0.544037;0.537043;0.540481;0.535349;0.532882;0.526996;0.527406;0.527045;0.520826;0.521510;0.519860;0.518525;0.514891;0.510506;0.518908;0.514672;0.512608;0.509590;0.506316;0.510735;0.508226;0.508235;0.510741;0.510475;0.501553;0.506863;0.505784
0.535497;0.536539;0.537830;0.543879;0.543356;0.547630;0.555882;0.556198;0.558538;0.565514;0.565408;0.566021;0.569365;0.574803;0.574766;0.577759;0.586077;0.584736;0.595218;0.594251;0.604637;0.596332;0.606543;0.605350;0.612320;0.616530;0.613757;0.619370;0.623267;0.624865;0.627427;0.633331;0.631988;0.638095;0.638569;0.639949;0.641796;0.641485;0.648238;0.647362;0.644648;0.647516;0.651072;0.651936;0.648668;0.649451;0.651173;0.650231;0.651966;0.647053;0.650105;0.649608;0.648031;0.643054;0.647484;0.642565;0.642198;0.640388;0.642828;0.638587;0.638938;0.635535;0.626658;0.630866;0.627691;0.624788;0.624998;0.626983;0.621732;0.621612;0.620483;0.614771;0.615633;0.614823;0.613751;0.606396;0.608316;0.602796;0.602866;0.600777;0.597971;0.597269;0.591179;0.592475;0.595860;0.585782;0.581457;0.580189;0.584357;0.582435;0.580342;0.578826;0.584896;0.578261;0.579572;0.580749;0.578005;0.573664;0.571613;0.570448;0.573279;0.574338;0.571272;0.573401;0.576478;0.575575;0.574786;0.580144;0.571475;0.583685;0.584643;0.582909;0.584440;0.589580;0.590397;0.592631;0.598807;0.599574;0.600741;0.606410;0.614677;0.614294;0.620531;0.627120;0.630234;0.637162;0.638713;0.650523;0.649321;0.658988;0.669088;0.670599;0.678258;0.684200;0.690736;0.695241;0.700140;0.710794;0.717438;0.728203;0.727319;0.734938;0.739139;0.747230;0.750121;0.752601;0.765291;0.769159;0.773861;0.778135;0.783361;0.785413;0.788352;0.786613;0.794350;0.793572;0.789573;0.794552;0.794501;0.798545;0.795639;0.790148;0.790955;0.788461;0.784152;0.787149;0.780434;0.780087;0.773449;0.769778;0.766324;0.759290;0.756617;0.747468;0.742331;0.738820;0.730930;0.728799;0.716264;0.717307;0.703372;0.698220;0.686728;0.684526;0.679003;0.669616;0.660931;0.652360;0.645328;0.638729;0.625027;0.622425;0.617306;0.610880;0.610301;0.603090;0.591152;0.588726;0.580772;0.577220
0.510134;0.508791;0.510055;0.508020;0.508803;0.510561;0.517667;0.520138;0.514071;0.520212;0.513619;0.519681;0.524256;0.520395;0.521255;0.523123;0.521482;0.525110;0.525624;0.532186;0.537959;0.531943;0.533572;0.534098;0.535925;0.541743;0.538678;0.542489;0.545758;0.542846;0.545322;0.551358;0.552061;0.555379;0.558267;0.558412;0.560089;0.565860;0.567943;0.571121;0.573838;0.578462;0.577560;0.585597;0.585105;0.585178;0.590831;0.595032;0.596721;0.598216;0.603664;0.606286;0.610428;0.612240;0.616339;0.622938;0.626356;0.627416;0.631539;0.630835;0.633155;0.638122;0.643879;0.649488;0.649561;0.656328;0.660374;0.661520;0.672122;0.669140;0.680059;0.682084;0.683170;0.685988;0.692507;0.696429;0.701094;0.703391;0.708987;0.713680;0.712801;0.718836;0.722495;0.730418;0.734481;0.733866;0.739881;0.742795;0.746009;0.744160;0.750166;0.755466;0.756640;0.761627;0.765570;0.769819;0.767164;0.776641;0.774851;0.774461;0.785289;0.783799;0.790387;0.790144;0.786642;0.790248;0.797853;0.797463;0.797193;0.800800;0.805157;0.804724;0.803679;0.808702;0.803361;0.804766;0.802711;0.805415;0.805059;0.807186;0.805553;0.797352;0.801271;0.804555;0.796877;0.795979;0.795550;0.789390;0.787733;0.784174;0.782461;0.781017;0.778549;0.774955;0.767582;0.766609;0.764915;0.760417;0.757487;0.754521;0.744825;0.741238;0.738153;0.728517;0.726634;0.721357;0.717633;0.712742;0.708299;0.710772;0.701034;0.696976;0.695902;0.688009;0.683657;0.679940;0.675132;0.673652;0.669655;0.657771;0.658246;0.648354;0.646678;0.645452;0.635082;0.634142;0.634347;0.627659;0.627368;0.620138;0.613502;0.607276;0.608151;0.598453;0.598523;0.595424;0.595177;0.588699;0.585672;0.581639;0.578817;0.571661;0.576165;0.566491;0.568652;0.561757;0.560349;0.554198;0.557426;0.548495;0.549904;0.543818;0.546985;0.539872;0.537516;0.538690;0.531730;0.531145;0.533384;0.531445
0.580244;0.586259;0.589233;0.595311;0.602791;0.607634;0.615546;0.616270;0.624405;0.638208;0.642031;0.651307;0.658786;0.660915;0.676526;0.676117;0.684539;0.695451;0.699702;0.709999;0.719751;0.725104;0.732962;0.740009;0.746268;0.754242;0.759722;0.765050;0.771205;0.782948;0.792363;0.787861;0.802009;0.806377;0.809377;0.816864;0.813236;0.820682;0.822225;0.829826;0.830452;0.834104;0.838265;0.834206;0.840543;0.836450;0.841007;0.837460;0.839768;0.842504;0.841770;0.843799;0.841614;0.839649;0.841288;0.841646;0.839313;0.837597;0.835043;0.829552;0.828725;0.827202;0.822455;0.816847;0.822578;0.818511;0.808827;0.803543;0.802502;0.795505;0.793166;0.791094;0.789633;0.782470;0.778408;0.775209;0.770052;0.766260;0.761419;0.755474;0.754107;0.744941;0.741144;0.734867;0.728597;0.726907;0.724910;0.713923;0.711487;0.707473;0.696071;0.693566;0.691891;0.686742;0.683039;0.674549;0.669206;0.664948;0.658572;0.658244;0.646812;0.645728;0.639710;0.634867;0.629401;0.626999;0.623842;0.619758;0.612802;0.610321;0.602128;0.602506;0.599336;0.596556;0.593631;0.592836;0.582952;0.584401;0.577687;0.576220;0.577333;0.576832;0.567096;0.570565;0.564156;0.565992;0.562914;0.562048;0.557538;0.555137;0.557588;0.554764;0.554329;0.552244;0.550625;0.551468;0.553059;0.548352;0.549139;0.548930;0.549154;0.545835;0.546721;0.542647;0.546187;0.547547;0.544869;0.548245;0.544667;0.544970;0.545345;0.543536;0.544469;0.545996;0.548392;0.542804;0.539082;0.544260;0.543333;0.542004;0.538175;0.538154;0.538429;0.541767;0.541935;0.539777;0.541037;0.535727;0.539368;0.537154;0.539210;0.533246;0.536377;0.537857;0.529379;0.531926;0.529772;0.533635;0.532256;0.526866;0.525635;0.527733;0.528027;0.526254;0.523745;0.527257;0.522167;0.521033;0.515511;0.520288;0.512851;0.519435;0.519948;0.516302;0.517029;0.515256;0.518120;0.513186;0.513454;0.512305
0.564860;0.564640;0.571746;0.575247;0.579978;0.584884;0.592657;0.595695;0.602495;0.612493;0.613867;0.617563;0.620335;0.627824;0.634199;0.637867;0.649262;0.649806;0.659506;0.664499;0.664965;0.673288;0.682125;0.687580;0.688387;0.690659;0.702105;0.706592;0.710074;0.712554;0.713086;0.719178;0.721798;0.726890;0.726032;0.731250;0.729258;0.731093;0.737672;0.735724;0.740697;0.741299;0.737789;0.735864;0.739159;0.736668;0.736640;0.735868;0.736794;0.731883;0.727617;0.726728;0.721881;0.722737;0.720020;0.714748;0.713230;0.708861;0.704841;0.703683;0.694363;0.689942;0.688353;0.680675;0.675918;0.674430;0.667672;0.667259;0.661733;0.657886;0.656918;0.647699;0.647264;0.644041;0.645540;0.643430;0.635972;0.633540;0.635528;0.624670;0.621760;0.625218;0.625752;0.623062;0.622903;0.620345;0.619832;0.612664;0.616198;0.612565;0.614355;0.615114;0.618038;0.614990;0.618334;0.619097;0.622689;0.616128;0.614932;0.624254;0.622771;0.623134;0.619983;0.626639;0.628470;0.625587;0.627527;0.632564;0.632307;0.637211;0.633473;0.635965;0.642796;0.642215;0.644618;0.646792;0.645489;0.649158;0.649466;0.649091;0.657769;0.654738;0.655579;0.658926;0.661627;0.655739;0.659143;0.660897;0.666585;0.667663;0.669707;0.666367;0.667471;0.671960;0.667843;0.673831;0.675352;0.676833;0.678037;0.673955;0.681609;0.676422;0.675936;0.679219;0.676467;0.680282;0.679228;0.682615;0.677029;0.678180;0.676238;0.675239;0.674258;0.675820;0.670150;0.672523;0.668879;0.668616;0.668727;0.669450;0.664408;0.665463;0.659318;0.654863;0.655470;0.652193;0.651166;0.642479;0.645278;0.642305;0.637914;0.633764;0.628409;0.622193;0.626998;0.617313;0.611871;0.609512;0.602946;0.605140;0.609227;0.597737;0.591985;0.588006;0.587923;0.584246;0.575940;0.574785;0.574969;0.570150;0.563131;0.566288;0.563436;0.557407;0.556217;0.554148;0.549341;0.546013;0.542260;0.542719
0.505547;0.504602;0.508673;0.508230;0.510174;0.511272;0.513359;0.512991;0.513926;0.511902;0.515315;0.513750;0.513469;0.522815;0.521648;0.517423;0.521785;0.519285;0.519664;0.522056;0.520139;0.526022;0.529754;0.524889;0.532446;0.530379;0.534556;0.538451;0.535384;0.536696;0.540270;0.541622;0.542225;0.542165;0.544401;0.551212;0.546704;0.552381;0.550326;0.556496;0.558563;0.562365;0.560538;0.559803;0.568370;0.568536;0.578199;0.571654;0.571867;0.580778;0.582196;0.588504;0.586106;0.585969;0.589606;0.599917;0.599366;0.596408;0.605274;0.609139;0.616114;0.615548;0.624533;0.617853;0.620990;0.628667;0.629714;0.639122;0.633440;0.642339;0.643079;0.648396;0.654098;0.659361;0.660124;0.664107;0.664811;0.668562;0.672202;0.675691;0.676861;0.679315;0.682411;0.691973;0.690640;0.696269;0.695991;0.701534;0.699732;0.702431;0.708098;0.710827;0.711256;0.719698;0.723377;0.723741;0.730475;0.732332;0.731469;0.735908;0.736393;0.741420;0.748950;0.749846;0.754159;0.756121;0.750001;0.756766;0.760841;0.759651;0.763275;0.765465;0.765632;0.769625;0.772067;0.773254;0.773088;0.778625;0.776993;0.776728;0.778521;0.778495;0.781768;0.778908;0.778467;0.781072;0.777869;0.774551;0.778486;0.776986;0.778081;0.773724;0.777665;0.777103;0.777514;0.773057;0.775563;0.771553;0.773147;0.766620;0.766263;0.765363;0.762040;0.758601;0.756765;0.759876;0.758398;0.749830;0.745113;0.747059;0.741826;0.739242;0.733061;0.735812;0.729759;0.724296;0.725360;0.719441;0.716054;0.713613;0.706681;0.710303;0.701672;0.695866;0.697902;0.689368;0.687236;0.681571;0.675650;0.670264;0.669871;0.665459;0.658320;0.647717;0.646991;0.649032;0.640223;0.638430;0.631145;0.625496;0.621365;0.613765;0.609295;0.605935;0.598360;0.600395;0.589658;0.583429;0.578161;0.579101;0.577763;0.568993;0.568953;0.562732;0.558795;0.553917;0.551220;0.548431;0.543002;0.540148
0.554598;0.556913;0.564030;0.568682;0.571778;0.579069;0.584120;0.581317;0.586893;0.594912;0.602498;0.606364;0.611123;0.616040;0.623302;0.626781;0.634292;0.634964;0.647236;0.652694;0.656756;0.662383;0.667095;0.680084;0.678658;0.685815;0.689067;0.695560;0.704751;0.706893;0.714453;0.718027;0.729090;0.731726;0.734385;0.741369;0.746224;0.748372;0.756389;0.757666;0.764101;0.767463;0.776478;0.780046;0.781935;0.781454;0.791043;0.790528;0.793712;0.791313;0.799441;0.801622;0.803161;0.802714;0.806207;0.809790;0.811113;0.814653;0.808982;0.818825;0.815124;0.819193;0.823683;0.822205;0.818310;0.818402;0.813255;0.820764;0.819670;0.816874;0.817325;0.818789;0.813360;0.810906;0.809568;0.807624;0.804193;0.802248;0.800247;0.799738;0.794243;0.789362;0.787927;0.780406;0.779042;0.772269;0.775344;0.763537;0.760463;0.749570;0.747330;0.740548;0.736397;0.728997;0.721087;0.718837;0.708087;0.704895;0.699590;0.692079;0.690799;0.682089;0.671146;0.668676;0.666600;0.654062;0.650805;0.642822;0.643168;0.636109;0.628726;0.620070;0.613258;0.616398;0.607025;0.604714;0.600526;0.596274;0.593956;0.586419;0.585124;0.579861;0.579563;0.571784;0.577104;0.568736;0.574387;0.567647;0.573627;0.564991;0.564861;0.559316;0.562847;0.564264;0.555248;0.562689;0.559154;0.562947;0.561660;0.562501;0.558313;0.559102;0.558916;0.558227;0.557869;0.564490;0.560430;0.563044;0.559012;0.562425;0.559565;0.560734;0.564103;0.568092;0.563927;0.561228;0.565551;0.566773;0.565607;0.560989;0.563258;0.562417;0.558811;0.561206;0.567761;0.562759;0.563743;0.555769;0.561299;0.554328;0.556814;0.556809;0.556832;0.554661;0.550083;0.551533;0.545128;0.545837;0.547780;0.547859;0.545696;0.542500;0.545544;0.542360;0.540004;0.537578;0.534309;0.533179;0.533255;0.532080;0.527144;0.525867;0.529550;0.523532;0.528168;0.520393;0.520449;0.519504;0.520741;0.519619
0.503075;0.507864;0.504652;0.502785;0.512569;0.503269;0.505747;0.504877;0.504839;0.505632;0.507738;0.511722;0.512537;0.507104;0.508521;0.509233;0.512883;0.516149;0.509216;0.512935;0.513256;0.511315;0.511850;0.513076;0.513089;0.515503;0.513765;0.511947;0.517290;0.511170;0.514949;0.518260;0.516678;0.520504;0.515714;0.515389;0.515605;0.516866;0.514909;0.517780;0.517431;0.514084;0.517518;0.519330;0.522942;0.517402;0.522055;0.517114;0.517866;0.519823;0.525679;0.523128;0.523013;0.523442;0.525933;0.527341;0.524539;0.525436;0.526442;0.525864;0.526241;0.521471;0.523843;0.527151;0.527816;0.527728;0.531941;0.531540;0.531293;0.530011;0.532177;0.533554;0.534272;0.536610;0.532225;0.538096;0.538817;0.540189;0.541103;0.545703;0.549902;0.549229;0.546818;0.551177;0.550066;0.554606;0.558850;0.561473;0.562739;0.567701;0.569717;0.569697;0.575398;0.579350;0.584204;0.587643;0.587861;0.589567;0.595442;0.604396;0.605902;0.610719;0.610014;0.612384;0.623999;0.628571;0.628030;0.635951;0.642386;0.647047;0.649383;0.655848;0.660703;0.671459;0.672227;0.678182;0.688304;0.692025;0.696836;0.704624;0.706845;0.718429;0.722327;0.728613;0.738444;0.747664;0.755769;0.760697;0.764428;0.771240;0.780102;0.786028;0.797423;0.806667;0.806745;0.814545;0.823824;0.830649;0.835708;0.847561;0.852347;0.859977;0.863412;0.867275;0.874536;0.879079;0.885137;0.891747;0.895667;0.894980;0.901075;0.904445;0.905611;0.900227;0.909699;0.907783;0.911167;0.906654;0.911965;0.909907;0.905642;0.902524;0.897583;0.889403;0.893603;0.890227;0.883446;0.870030;0.871496;0.862252;0.855479;0.850091;0.844370;0.834123;0.825475;0.819162;0.810682;0.799712;0.792763;0.782742;0.774047;0.763023;0.758767;0.743483;0.737890;0.726616;0.716485;0.704767;0.696644;0.693988;0.681227;0.668581;0.659066;0.650777;0.644109;0.637048;0.633045;0.619808;0.614543;0.605156
0.516390;0.518611;0.519384;0.520108;0.523712;0.521420;0.519609;0.527123;0.525102;0.530969;0.528195;0.532597;0.536282;0.533627;0.536099;0.532600;0.536900;0.540492;0.544462;0.544369;0.538488;0.546034;0.550375;0.548560;0.548267;0.555309;0.555373;0.553317;0.557667;0.555238;0.558919;0.560017;0.559396;0.559976;0.562464;0.561289;0.567905;0.572461;0.566864;0.568763;0.573362;0.566021;0.575501;0.569664;0.568801;0.570932;0.569892;0.569941;0.576712;0.572222;0.572960;0.575462;0.570204;0.574394;0.573411;0.579161;0.577148;0.574835;0.579016;0.578360;0.581121;0.584500;0.583299;0.583054;0.583406;0.587963;0.585091;0.595511;0.593166;0.597690;0.602711;0.604638;0.602090;0.605531;0.610319;0.613987;0.618431;0.624700;0.630060;0.630335;0.638603;0.649578;0.653584;0.660424;0.659707;0.668098;0.677737;0.679410;0.693305;0.698785;0.706630;0.710847;0.723760;0.731785;0.739191;0.747593;0.759372;0.757011;0.769565;0.780321;0.786554;0.791422;0.801986;0.807706;0.816551;0.821188;0.834219;0.838683;0.836911;0.845085;0.854068;0.856745;0.861876;0.866371;0.870489;0.874338;0.870663;0.880845;0.878391;0.881762;0.882906;0.887852;0.881824;0.879780;0.884008;0.876286;0.878188;0.871181;0.868576;0.865705;0.862744;0.852224;0.848215;0.856024;0.839288;0.833317;0.833272;0.828090;0.815433;0.808293;0.801707;0.791161;0.789590;0.779774;0.773778;0.763938;0.760274;0.752125;0.745297;0.734421;0.730480;0.718124;0.712446;0.706103;0.701687;0.695542;0.686472;0.677050;0.668358;0.664754;0.663665;0.651740;0.647489;0.641896;0.638309;0.631571;0.624368;0.621763;0.613086;0.610317;0.607522;0.603627;0.595466;0.594088;0.582890;0.588018;0.578417;0.575828;0.573524;0.568447;0.561660;0.562486;0.555334;0.554878;0.554696;0.553642;0.546617;0.542803;0.541785;0.538336;0.538716;0.534361;0.531680;0.535822;0.531698;0.532716;0.524833;0.520549;0.527618;0.524768
0.516058;0.515873;0.519702;0.520002;0.521074;0.521337;0.524677;0.525323;0.532571;0.528675;0.530296;0.536356;0.532569;0.536139;0.540509;0.539856;0.538848;0.543869;0.547542;0.548010;0.545356;0.548246;0.555255;0.554171;0.557565;0.561163;0.561754;0.561366;0.561796;0.568996;0.568541;0.570828;0.571775;0.576999;0.577118;0.579495;0.577798;0.579537;0.585882;0.590314;0.587100;0.584536;0.594438;0.594140;0.597825;0.595558;0.601270;0.599732;0.604980;0.605045;0.611507;0.608258;0.610900;0.614963;0.618180;0.621028;0.619439;0.622483;0.629032;0.625211;0.629240;0.633821;0.636826;0.635440;0.642263;0.647578;0.649516;0.647770;0.654494;0.659221;0.668654;0.670024;0.671653;0.674348;0.677903;0.684279;0.690269;0.694773;0.697481;0.704301;0.709212;0.714850;0.716893;0.721372;0.724401;0.735529;0.735726;0.745465;0.750494;0.757995;0.760341;0.767122;0.776577;0.786172;0.791323;0.795264;0.794706;0.803664;0.813559;0.817017;0.824596;0.824796;0.829544;0.835897;0.841100;0.845611;0.852603;0.858230;0.861738;0.859655;0.861016;0.866463;0.869019;0.868087;0.870120;0.869021;0.872461;0.872454;0.873403;0.864711;0.870801;0.868314;0.859396;0.856857;0.855244;0.851756;0.847170;0.844822;0.836436;0.829564;0.819619;0.822803;0.810073;0.804796;0.797564;0.790062;0.784844;0.773315;0.762874;0.756956;0.744645;0.741802;0.727302;0.724967;0.714215;0.704917;0.697694;0.687984;0.683564;0.671735;0.664592;0.652030;0.648536;0.638173;0.639168;0.620902;0.615370;0.610109;0.604670;0.603483;0.592064;0.584682;0.578988;0.571639;0.574816;0.564861;0.560789;0.561102;0.549546;0.545217;0.540489;0.541213;0.539865;0.533548;0.528670;0.527178;0.531181;0.526715;0.523517;0.523019;0.511147;0.516968;0.514474;0.513602;0.511040;0.506677;0.505929;0.512556;0.508552;0.503532;0.507955;0.505723;0.500250;0.499830;0.502062;0.501690;0.503543;0.499905;0.500517;0.502921
0.506437;0.507865;0.509239;0.505470;0.508595;0.507919;0.509158;0.513707;0.511443;0.510943;0.510197;0.514163;0.508739;0.515104;0.513370;0.511695;0.514574;0.513283;0.514233;0.516203;0.511050;0.512729;0.519920;0.512227;0.517645;0.514794;0.519899;0.520141;0.515430;0.523846;0.519652;0.523179;0.520990;0.521080;0.521008;0.520158;0.522866;0.521726;0.519779;0.524920;0.525178;0.523577;0.517868;0.518788;0.523471;0.520319;0.520153;0.519251;0.514816;0.525115;0.518996;0.520062;0.521105;0.521564;0.518390;0.521246;0.515965;0.519204;0.518013;0.517252;0.517358;0.522354;0.517795;0.519433;0.512320;0.514705;0.512686;0.514830;0.513481;0.512599;0.510758;0.513929;0.513707;0.510485;0.511346;0.509895;0.515381;0.516756;0.510596;0.513296;0.517590;0.513703;0.514142;0.513378;0.513585;0.515964;0.513887;0.514102;0.518423;0.515765;0.518796;0.519209;0.522027;0.518938;0.528375;0.529118;0.529312;0.530207;0.535427;0.535804;0.538019;0.537899;0.543569;0.544239;0.553043;0.555010;0.552387;0.555158;0.564950;0.569517;0.577788;0.582976;0.587870;0.593064;0.603029;0.607726;0.615749;0.617992;0.628898;0.636801;0.645147;0.656529;0.662867;0.666356;0.679044;0.686780;0.704997;0.710002;0.717668;0.731500;0.742870;0.749705;0.766554;0.770411;0.787973;0.797031;0.807342;0.816605;0.829124;0.841086;0.846460;0.862096;0.873834;0.879779;0.893185;0.900612;0.910460;0.917543;0.923692;0.925183;0.931043;0.939537;0.942885;0.946683;0.956268;0.955832;0.960370;0.964310;0.960479;0.964448;0.964251;0.961655;0.956980;0.961013;0.953786;0.945027;0.942339;0.943562;0.934065;0.929426;0.919513;0.915919;0.902446;0.892430;0.886676;0.877953;0.870271;0.855408;0.850235;0.834345;0.822541;0.814912;0.801711;0.792441;0.776357;0.763320;0.755900;0.743051;0.734398;0.721872;0.708907;0.703427;0.688735;0.679412;0.670837;0.662351;0.653033;0.636803;0.628085;0.626172
0.525211;0.525865;0.531695;0.531805;0.541251;0.536788;0.538542;0.538529;0.545600;0.548286;0.547714;0.545521;0.550311;0.551150;0.556038;0.562874;0.563153;0.562711;0.565217;0.572531;0.572585;0.580450;0.585021;0.587909;0.579960;0.589607;0.592748;0.594658;0.595335;0.600167;0.600527;0.600287;0.610071;0.607740;0.611844;0.618767;0.617119;0.616279;0.620208;0.623189;0.629810;0.627948;0.626079;0.636673;0.635873;0.634568;0.637754;0.638139;0.641730;0.647249;0.647025;0.648166;0.652425;0.650226;0.650840;0.655824;0.654967;0.657304;0.658996;0.657349;0.662204;0.665816;0.667962;0.667033;0.670243;0.673623;0.675936;0.679059;0.676387;0.679305;0.681131;0.681504;0.679528;0.688744;0.690180;0.691016;0.689983;0.697795;0.696539;0.703794;0.701631;0.712839;0.712147;0.714159;0.714066;0.712710;0.719254;0.726090;0.727794;0.729414;0.735816;0.730552;0.738714;0.734982;0.736538;0.745869;0.744675;0.752235;0.750835;0.757503;0.756913;0.760723;0.763898;0.766913;0.767090;0.772365;0.775141;0.776813;0.777019;0.775695;0.772956;0.783496;0.785628;0.779584;0.779685;0.783683;0.781442;0.783727;0.780227;0.780445;0.779971;0.778025;0.776303;0.775547;0.782666;0.773245;0.774149;0.769937;0.767003;0.760834;0.759224;0.760784;0.751361;0.748718;0.742955;0.743526;0.735966;0.731575;0.720654;0.718804;0.715581;0.715930;0.704462;0.703267;0.697701;0.697511;0.686983;0.681613;0.678786;0.672192;0.666845;0.669109;0.659466;0.649639;0.649130;0.646006;0.639834;0.639182;0.632142;0.630520;0.623477;0.620940;0.618027;0.613005;0.606584;0.602704;0.600867;0.596198;0.593375;0.588728;0.589638;0.581301;0.579569;0.573467;0.567995;0.571415;0.567167;0.563932;0.559399;0.554104;0.553312;0.554933;0.550596;0.547192;0.542722;0.542893;0.540277;0.542530;0.536415;0.532140;0.534844;0.528787;0.529623;0.525784;0.520893;0.528609;0.520650;0.519762;0.521026;0.519390
0.523910;0.524547;0.522664;0.526620;0.533124;0.526955;0.536856;0.532924;0.539478;0.539096;0.541365;0.543454;0.543582;0.549290;0.553581;0.558452;0.553705;0.555787;0.559692;0.560163;0.564808;0.565745;0.572598;0.572915;0.567499;0.575517;0.576266;0.573183;0.578348;0.582530;0.588835;0.586587;0.587290;0.584176;0.591698;0.592833;0.594558;0.598117;0.589232;0.594523;0.593583;0.595631;0.599537;0.595531;0.596417;0.593367;0.595260;0.597320;0.594038;0.597554;0.591032;0.594875;0.591443;0.591280;0.589896;0.592935;0.594114;0.593369;0.588229;0.591671;0.589377;0.591493;0.593039;0.587604;0.593469;0.596248;0.589130;0.592872;0.596682;0.597927;0.593747;0.605679;0.602688;0.600048;0.604927;0.607583;0.608575;0.611835;0.620121;0.623303;0.620143;0.625999;0.630264;0.632735;0.636951;0.644000;0.652587;0.655759;0.661070;0.669152;0.673355;0.675567;0.680443;0.688554;0.695915;0.701262;0.710354;0.719851;0.726118;0.730121;0.737838;0.737993;0.748030;0.753477;0.761832;0.763729;0.771445;0.775482;0.787907;0.786215;0.793221;0.803011;0.799890;0.807391;0.809199;0.811407;0.814991;0.819973;0.820557;0.822975;0.821818;0.826594;0.824688;0.826725;0.828868;0.823395;0.826095;0.825200;0.824853;0.820395;0.817491;0.815151;0.812009;0.809067;0.805052;0.804620;0.800238;0.797868;0.793913;0.787381;0.784635;0.783250;0.772503;0.767031;0.761215;0.756733;0.751732;0.749160;0.748055;0.739332;0.733052;0.723826;0.721082;0.710427;0.719616;0.707698;0.699900;0.698777;0.688062;0.684670;0.680339;0.673484;0.674203;0.666349;0.659662;0.654074;0.646387;0.645266;0.643679;0.638697;0.624309;0.626444;0.623873;0.618335;0.609580;0.607544;0.606902;0.593546;0.598612;0.593706;0.589726;0.585373;0.581791;0.575250;0.570127;0.565954;0.568261;0.561647;0.559662;0.554293;0.553674;0.554802;0.548360;0.540886;0.540516;0.536280;0.538046;0.537062;0.531864;0.526454
0.504118;0.504807;0.504516;0.502726;0.503480;0.507005;0.508169;0.502548;0.505815;0.509833;0.506403;0.506750;0.510797;0.505891;0.508783;0.508633;0.512213;0.507469;0.512817;0.513322;0.512282;0.520607;0.513622;0.516823;0.520152;0.519601;0.520252;0.521393;0.524478;0.521050;0.527876;0.524887;0.527220;0.527178;0.528666;0.531778;0.534263;0.532230;0.533995;0.533353;0.540778;0.537642;0.542357;0.545153;0.544747;0.553020;0.553456;0.553666;0.556153;0.558823;0.560590;0.560583;0.565325;0.568929;0.569938;0.576315;0.574169;0.582133;0.581448;0.582852;0.587342;0.585240;0.592532;0.589270;0.593983;0.596286;0.601147;0.602059;0.601258;0.606976;0.611563;0.615323;0.615130;0.619699;0.620123;0.620375;0.626539;0.628500;0.624526;0.624102;0.632817;0.636090;0.634291;0.637149;0.642164;0.642910;0.645283;0.645464;0.640944;0.643099;0.649805;0.651343;0.647557;0.653717;0.652580;0.654509;0.655970;0.661933;0.660782;0.663534;0.667875;0.665898;0.663765;0.671795;0.676020;0.677730;0.677317;0.679588;0.681376;0.681252;0.681736;0.689422;0.688141;0.693716;0.695801;0.695873;0.699490;0.705197;0.703407;0.711326;0.708637;0.718743;0.717372;0.717167;0.726607;0.729895;0.738310;0.737104;0.738132;0.744672;0.746747;0.755977;0.762238;0.762624;0.768784;0.767115;0.773187;0.771783;0.780915;0.785921;0.786303;0.790586;0.794551;0.796323;0.803186;0.809368;0.807304;0.814876;0.808899;0.813619;0.817088;0.813276;0.816962;0.814619;0.813878;0.813516;0.818893;0.813784;0.814594;0.810961;0.805640;0.806136;0.806130;0.802512;0.797725;0.788106;0.783610;0.784282;0.779603;0.775123;0.766990;0.761869;0.755952;0.751122;0.742772;0.738903;0.731656;0.722181;0.715435;0.708986;0.707429;0.691614;0.693948;0.682839;0.672482;0.669409;0.657057;0.648661;0.646900;0.637561;0.630280;0.626708;0.616631;0.609806;0.604665;0.598938;0.590284;0.582679;0.581206;0.578255
0.547523;0.553367;0.555174;0.555993;0.558917;0.566927;0.569613;0.577208;0.580838;0.582569;0.586478;0.588361;0.598555;0.596731;0.599205;0.608175;0.611965;0.618534;0.620224;0.624979;0.629923;0.632946;0.633795;0.639849;0.643066;0.649055;0.653293;0.653750;0.658519;0.663201;0.660951;0.669607;0.670559;0.675100;0.674942;0.680773;0.673696;0.679531;0.681965;0.682190;0.681297;0.679285;0.689163;0.680784;0.679886;0.681033;0.680199;0.678332;0.673884;0.677675;0.675709;0.671383;0.670355;0.664800;0.663873;0.663275;0.654742;0.657258;0.652825;0.650376;0.641841;0.638360;0.641575;0.639202;0.630047;0.625807;0.627912;0.625423;0.616893;0.613431;0.618902;0.608746;0.610047;0.607338;0.601004;0.603284;0.597785;0.592532;0.594517;0.593265;0.590360;0.587737;0.590703;0.587361;0.584103;0.587359;0.582943;0.583447;0.579571;0.579960;0.576924;0.581168;0.577406;0.581335;0.581097;0.585212;0.587128;0.585233;0.584716;0.592157;0.590530;0.594424;0.589726;0.594791;0.593112;0.596037;0.598297;0.604918;0.608075;0.607447;0.608598;0.611304;0.614806;0.620120;0.622752;0.620499;0.627297;0.635632;0.633821;0.640141;0.642022;0.642026;0.646108;0.655937;0.658750;0.660807;0.662914;0.668110;0.672425;0.676992;0.682121;0.690497;0.689283;0.690599;0.697951;0.699700;0.705499;0.708199;0.716687;0.713696;0.716938;0.725252;0.723902;0.731481;0.739439;0.732263;0.736688;0.744096;0.744087;0.747058;0.748109;0.750029;0.750060;0.748976;0.758305;0.752051;0.749126;0.748153;0.751187;0.751719;0.745129;0.742380;0.745489;0.744363;0.741257;0.736892;0.733718;0.731155;0.726333;0.726412;0.719471;0.713832;0.703544;0.701169;0.701645;0.694229;0.685532;0.682099;0.675110;0.671725;0.662561;0.657273;0.652143;0.652544;0.644480;0.630465;0.629894;0.624996;0.619302;0.613651;0.607473;0.603403;0.595357;0.590446;0.585175;0.582657;0.580973;0.569017;0.562282;0.561291
0.540664;0.547181;0.548286;0.553675;0.558892;0.559135;0.561781;0.564355;0.571537;0.572868;0.576570;0.577414;0.585417;0.584895;0.591988;0.593777;0.600701;0.599758;0.600819;0.609705;0.611080;0.614601;0.618695;0.622383;0.622396;0.625738;0.632765;0.630443;0.640551;0.638314;0.644838;0.643496;0.643770;0.644169;0.654862;0.651806;0.652614;0.662982;0.654270;0.653928;0.654458;0.653086;0.656895;0.655533;0.654108;0.652723;0.646295;0.647457;0.647500;0.645047;0.645581;0.643001;0.642957;0.640629;0.640177;0.638748;0.631474;0.635448;0.628414;0.625212;0.621468;0.619745;0.615456;0.615622;0.609609;0.607824;0.606241;0.601751;0.601651;0.594998;0.594356;0.591559;0.592733;0.590874;0.587584;0.587460;0.585594;0.574415;0.579844;0.580092;0.574953;0.576743;0.577431;0.578737;0.576913;0.577953;0.582791;0.577582;0.576597;0.579986;0.582910;0.581238;0.586194;0.583142;0.587952;0.592681;0.589431;0.591293;0.597204;0.599592;0.600661;0.603775;0.604874;0.610160;0.616318;0.616270;0.617271;0.622057;0.626649;0.624723;0.635845;0.635317;0.638190;0.642215;0.643826;0.647070;0.653483;0.658199;0.659906;0.665047;0.672626;0.671722;0.678588;0.681700;0.689936;0.691556;0.691983;0.700119;0.706638;0.708951;0.713351;0.720585;0.717191;0.722015;0.728234;0.734620;0.737359;0.740223;0.742985;0.743235;0.745200;0.754145;0.752946;0.755552;0.758729;0.760068;0.765801;0.765435;0.769737;0.773677;0.775028;0.772029;0.767106;0.775523;0.770996;0.775673;0.771655;0.771996;0.774824;0.770950;0.762818;0.762989;0.761608;0.758656;0.760298;0.755811;0.743522;0.748095;0.739945;0.742016;0.730413;0.727369;0.719210;0.714686;0.705151;0.707369;0.696677;0.695143;0.692338;0.680425;0.677514;0.670610;0.659588;0.657234;0.649314;0.644043;0.635977;0.631990;0.627219;0.618343;0.615465;0.609736;0.600828;0.597588;0.590452;0.591315;0.580228;0.582260;0.570022;0.566632
0.525916;0.525982;0.524692;0.531169;0.530876;0.532340;0.536769;0.537950;0.540803;0.540929;0.536139;0.546705;0.548261;0.549785;0.555488;0.553736;0.562004;0.557341;0.566385;0.569095;0.567178;0.574258;0.576409;0.579682;0.583513;0.583691;0.587370;0.593989;0.593656;0.594041;0.600760;0.602164;0.607781;0.606977;0.614517;0.615754;0.618853;0.623585;0.627055;0.624904;0.631197;0.634268;0.639382;0.643152;0.647174;0.646055;0.650896;0.658192;0.655237;0.662293;0.661553;0.663031;0.670321;0.674318;0.677750;0.685296;0.683789;0.689820;0.694602;0.690431;0.699271;0.702735;0.703788;0.705917;0.710326;0.715812;0.712593;0.718041;0.725828;0.731580;0.728102;0.735928;0.731809;0.737353;0.738617;0.745755;0.744356;0.752512;0.756054;0.755273;0.754091;0.759839;0.763786;0.764014;0.767597;0.766354;0.771684;0.774442;0.775297;0.780283;0.779963;0.777569;0.787300;0.787570;0.791586;0.791955;0.784208;0.789460;0.793917;0.789698;0.793493;0.791671;0.793217;0.796734;0.795231;0.794598;0.792246;0.798385;0.798158;0.799395;0.793051;0.797267;0.795775;0.792796;0.791475;0.789420;0.786783;0.780573;0.787302;0.776247;0.778141;0.770262;0.774291;0.770130;0.761554;0.762375;0.759388;0.753322;0.751824;0.745592;0.740319;0.735101;0.732574;0.725249;0.717585;0.709397;0.709829;0.703908;0.699400;0.691903;0.686989;0.684584;0.679883;0.673167;0.662916;0.661458;0.658254;0.647940;0.643721;0.639352;0.635137;0.629927;0.622445;0.617721;0.613178;0.611123;0.608247;0.600921;0.597810;0.592618;0.595499;0.578785;0.584111;0.577947;0.571857;0.570117;0.568686;0.564790;0.562921;0.559899;0.557273;0.549998;0.553378;0.547192;0.541807;0.547671;0.540691;0.538647;0.538192;0.533355;0.531889;0.534710;0.528485;0.536486;0.523538;0.522940;0.524492;0.518915;0.523380;0.525152;0.518775;0.518120;0.512291;0.518510;0.512775;0.515328;0.515361;0.514336;0.512777;0.511146
0.499922;0.504726;0.507020;0.506016;0.500160;0.501245;0.504864;0.507532;0.505341;0.503557;0.510413;0.511179;0.507793;0.511237;0.511266;0.517544;0.516986;0.523227;0.520659;0.526195;0.527430;0.528360;0.531044;0.532847;0.534018;0.540682;0.542348;0.545417;0.551386;0.553869;0.560673;0.564208;0.567669;0.576126;0.578464;0.592858;0.593251;0.597722;0.603730;0.615241;0.617823;0.630400;0.635696;0.647725;0.652936;0.664008;0.672678;0.679924;0.688258;0.699733;0.710548;0.715497;0.723641;0.740370;0.751125;0.761427;0.764792;0.779034;0.793654;0.797811;0.807944;0.822084;0.824689;0.838832;0.846477;0.856407;0.864858;0.873863;0.881332;0.886229;0.893736;0.898771;0.904337;0.904796;0.914995;0.913706;0.921447;0.919262;0.924668;0.923991;0.925679;0.922354;0.924272;0.924132;0.917708;0.918637;0.910411;0.907340;0.907124;0.899272;0.889343;0.888241;0.881231;0.874005;0.867665;0.858024;0.850991;0.838374;0.828566;0.824087;0.817520;0.806755;0.798470;0.783901;0.776175;0.769432;0.760233;0.749540;0.743937;0.734634;0.724442;0.717169;0.703965;0.698917;0.686565;0.688080;0.678190;0.667628;0.662146;0.652545;0.656381;0.642200;0.642411;0.634564;0.627030;0.626505;0.622059;0.612014;0.609604;0.612553;0.608458;0.603558;0.599610;0.597286;0.596165;0.587677;0.594244;0.587536;0.589239;0.589306;0.582363;0.586228;0.585810;0.585871;0.586127;0.582983;0.581548;0.584312;0.582711;0.587970;0.582336;0.580733;0.582049;0.585750;0.580358;0.578432;0.579351;0.580377;0.580621;0.583555;0.575205;0.581373;0.577352;0.577224;0.575106;0.578706;0.570458;0.573463;0.573826;0.573173;0.564042;0.566891;0.569129;0.569757;0.565809;0.568445;0.555361;0.561607;0.560510;0.555905;0.554405;0.551204;0.555580;0.551366;0.548398;0.545092;0.545115;0.539450;0.542210;0.540427;0.534478;0.535473;0.536223;0.535983;0.529321;0.528899;0.533168;0.528191;0.528282;0.527322
0.574156;0.575602;0.585662;0.587837;0.594405;0.600995;0.606604;0.608365;0.619058;0.626154;0.626290;0.633545;0.643849;0.641132;0.656172;0.659009;0.667940;0.665640;0.682463;0.684155;0.697105;0.698214;0.705626;0.712232;0.721725;0.723230;0.730698;0.735997;0.741979;0.742845;0.746702;0.750197;0.758622;0.762526;0.761688;0.765933;0.769597;0.776207;0.774079;0.777888;0.775187;0.779591;0.778717;0.779895;0.775817;0.778030;0.775230;0.774353;0.778913;0.772869;0.766098;0.766715;0.762475;0.759191;0.760275;0.750621;0.748702;0.746750;0.738356;0.736923;0.731677;0.728714;0.719131;0.715401;0.711731;0.710177;0.706438;0.701331;0.697048;0.690204;0.689520;0.688740;0.680712;0.675185;0.671135;0.672588;0.666483;0.660075;0.660815;0.652654;0.653693;0.652868;0.648466;0.649227;0.650946;0.646313;0.644228;0.642511;0.639166;0.639031;0.642678;0.635071;0.640850;0.642364;0.637436;0.638382;0.634838;0.639062;0.636342;0.644374;0.643619;0.643070;0.638038;0.638785;0.645342;0.642862;0.647757;0.645894;0.646747;0.645584;0.645525;0.647937;0.649201;0.648585;0.647187;0.647753;0.646981;0.656030;0.648899;0.649938;0.650920;0.650897;0.651428;0.646932;0.649799;0.651926;0.646891;0.650859;0.651452;0.650271;0.646632;0.645669;0.647686;0.641201;0.647564;0.641597;0.641887;0.640188;0.637838;0.639928;0.636292;0.634641;0.630063;0.635580;0.632027;0.629260;0.626870;0.625567;0.626123;0.625248;0.618539;0.617421;0.613544;0.618834;0.613682;0.612306;0.608366;0.606834;0.604884;0.602667;0.600338;0.600054;0.596554;0.591294;0.591671;0.593306;0.585634;0.589907;0.580940;0.575579;0.577680;0.573286;0.575272;0.569398;0.571677;0.563433;0.560962;0.560641;0.561454;0.556409;0.559480;0.555619;0.550039;0.548298;0.548709;0.543898;0.540174;0.537133;0.539662;0.537395;0.533048;0.530795;0.532408;0.530091;0.527164;0.524836;0.521901;0.523784;0.520921;0.517920
0.516181;0.513569;0.517029;0.517163;0.516997;0.515895;0.519932;0.515591;0.522598;0.520853;0.523031;0.527345;0.526452;0.534639;0.527077;0.533481;0.533519;0.536019;0.536170;0.538060;0.541016;0.537330;0.540675;0.539089;0.547339;0.546910;0.544803;0.544104;0.553070;0.552252;0.556633;0.554391;0.561478;0.560967;0.559473;0.562210;0.561425;0.564386;0.565796;0.569060;0.568999;0.564706;0.569165;0.575421;0.574215;0.573345;0.575926;0.579124;0.579049;0.576947;0.581370;0.583814;0.587234;0.584101;0.585141;0.586046;0.586231;0.591852;0.589492;0.586045;0.593438;0.592800;0.593775;0.596198;0.597229;0.595320;0.598068;0.595379;0.594143;0.598495;0.600838;0.598599;0.596105;0.594438;0.600736;0.604556;0.602635;0.599304;0.598398;0.594634;0.596528;0.598284;0.599191;0.594619;0.601977;0.591118;0.595999;0.594273;0.594191;0.596237;0.594038;0.589918;0.592715;0.594679;0.593188;0.593534;0.588611;0.598332;0.593361;0.592547;0.593031;0.596133;0.594559;0.598318;0.596365;0.599116;0.602901;0.605932;0.606322;0.603147;0.606771;0.610433;0.611970;0.615756;0.618979;0.624131;0.626411;0.627507;0.638641;0.636667;0.642700;0.646305;0.656288;0.666932;0.671923;0.674460;0.681269;0.686139;0.695170;0.697953;0.707535;0.714975;0.726050;0.734106;0.736466;0.744021;0.747713;0.759847;0.768378;0.778919;0.781135;0.786969;0.793451;0.805645;0.811307;0.817096;0.825508;0.828842;0.834103;0.835816;0.836551;0.846300;0.845541;0.852230;0.852240;0.854734;0.857457;0.855083;0.863213;0.854676;0.857281;0.860190;0.856337;0.852774;0.850359;0.847094;0.849219;0.840627;0.835943;0.833400;0.821533;0.815767;0.808408;0.805105;0.800817;0.791255;0.785419;0.772789;0.768350;0.758182;0.748911;0.743305;0.734691;0.724097;0.719536;0.702207;0.695503;0.687379;0.683904;0.678582;0.664409;0.656219;0.650526;0.637065;0.636686;0.628094;0.622263;0.614155;0.604221;0.599908
0.527010;0.524906;0.534255;0.530196;0.536824;0.534194;0.540055;0.537302;0.545858;0.549001;0.551043;0.555536;0.557258;0.554658;0.561449;0.560954;0.560696;0.574030;0.576801;0.582591;0.584544;0.582763;0.592175;0.593387;0.599068;0.602996;0.609238;0.609742;0.617520;0.626713;0.623045;0.627197;0.631667;0.638524;0.645860;0.650415;0.651355;0.662347;0.664500;0.669015;0.676934;0.680015;0.692667;0.700322;0.703493;0.708554;0.715569;0.716209;0.729336;0.736113;0.737885;0.744562;0.750442;0.760356;0.761116;0.772920;0.772911;0.782357;0.785828;0.789506;0.799188;0.804290;0.806367;0.815705;0.820099;0.829602;0.830149;0.836046;0.840018;0.840065;0.845859;0.853870;0.849593;0.857671;0.855772;0.852853;0.858348;0.859198;0.859668;0.858031;0.857492;0.855377;0.855205;0.850515;0.851778;0.847545;0.848547;0.843922;0.838853;0.838000;0.828820;0.823289;0.821885;0.818175;0.808743;0.804266;0.799344;0.792174;0.785526;0.778536;0.774176;0.767134;0.759753;0.754654;0.749103;0.742837;0.736365;0.724159;0.722386;0.719905;0.707347;0.701022;0.693837;0.685897;0.683286;0.675875;0.672933;0.664129;0.660029;0.651638;0.648911;0.647567;0.641083;0.632013;0.632504;0.625330;0.622792;0.620150;0.612564;0.611008;0.611582;0.603505;0.601340;0.597902;0.598778;0.592805;0.587751;0.588698;0.587891;0.579999;0.581412;0.577745;0.581774;0.577699;0.573829;0.574282;0.571660;0.568429;0.564332;0.567389;0.563296;0.564905;0.556401;0.560589;0.555833;0.560219;0.553736;0.553872;0.552212;0.550496;0.549202;0.550402;0.548071;0.551323;0.546411;0.547032;0.545890;0.540216;0.539122;0.537487;0.541976;0.536584;0.537173;0.532682;0.534256;0.529773;0.533092;0.531314;0.526351;0.525919;0.525022;0.522286;0.522161;0.523388;0.519279;0.519987;0.519602;0.521011;0.511761;0.515444;0.515213;0.514865;0.512772;0.514035;0.513371;0.502347;0.505079;0.509072;0.507174;0.503800
0.563467;0.566194;0.567336;0.578818;0.579683;0.584063;0.593573;0.592115;0.600738;0.605268;0.608172;0.614639;0.623204;0.629251;0.626949;0.640389;0.645557;0.648645;0.655727;0.664596;0.671104;0.672366;0.678347;0.686378;0.690256;0.695948;0.705291;0.709678;0.709919;0.716799;0.721640;0.723529;0.733428;0.726655;0.733815;0.737851;0.744188;0.745883;0.746738;0.748613;0.752542;0.749579;0.752419;0.749817;0.749787;0.754261;0.752528;0.752931;0.753353;0.753093;0.748459;0.751209;0.745559;0.745064;0.742815;0.744303;0.742029;0.739942;0.738185;0.733011;0.729981;0.729636;0.726201;0.723229;0.722212;0.720593;0.718781;0.705178;0.706665;0.707071;0.698988;0.697980;0.697243;0.694647;0.695463;0.688686;0.685468;0.678978;0.680151;0.683669;0.680794;0.679560;0.676960;0.670120;0.668073;0.665959;0.669580;0.667021;0.662854;0.661864;0.660423;0.661371;0.659513;0.658703;0.659303;0.650177;0.649827;0.658279;0.654637;0.654323;0.655850;0.652163;0.654036;0.654876;0.655470;0.654973;0.651943;0.654705;0.652949;0.651165;0.646928;0.653175;0.651508;0.654341;0.651177;0.652517;0.647542;0.648588;0.645545;0.645869;0.647634;0.646900;0.642167;0.646438;0.648578;0.643789;0.645379;0.644449;0.640968;0.641142;0.645110;0.642672;0.636216;0.638225;0.636146;0.635676;0.636736;0.633371;0.634135;0.635836;0.630931;0.629015;0.629262;0.625752;0.631615;0.626489;0.620205;0.618435;0.623539;0.619168;0.618866;0.619541;0.616137;0.615542;0.612575;0.610954;0.607887;0.604601;0.600041;0.602474;0.597684;0.601812;0.600647;0.595680;0.591558;0.586178;0.589903;0.586705;0.576784;0.578483;0.575200;0.576169;0.572356;0.569559;0.566828;0.562467;0.565777;0.560451;0.561385;0.553707;0.554644;0.551963;0.547691;0.547707;0.542522;0.543635;0.537708;0.539774;0.534641;0.532513;0.529711;0.526816;0.526360;0.523523;0.522843;0.516099;0.520984;0.520925;0.512121;0.511516
0.518039;0.519305;0.520472;0.524030;0.521760;0.525018;0.524555;0.528165;0.531028;0.532110;0.535817;0.533001;0.536096;0.541094;0.539149;0.546188;0.548672;0.545246;0.548147;0.545989;0.554639;0.549089;0.556884;0.556712;0.559081;0.561222;0.568282;0.566966;0.567698;0.572075;0.573584;0.567892;0.575991;0.573759;0.578495;0.577480;0.580478;0.583676;0.582648;0.583312;0.584113;0.586024;0.585457;0.593609;0.593057;0.590874;0.593368;0.597156;0.593949;0.599068;0.597024;0.599284;0.597395;0.597340;0.597916;0.603251;0.602067;0.606976;0.601339;0.600799;0.600848;0.607594;0.606121;0.610546;0.602400;0.607753;0.604794;0.606270;0.604635;0.608395;0.605046;0.604244;0.607675;0.601070;0.604519;0.609890;0.607195;0.605619;0.600460;0.597942;0.600136;0.600151;0.600752;0.595763;0.602598;0.597884;0.597624;0.593558;0.599917;0.593863;0.599168;0.596560;0.601429;0.601230;0.594627;0.595537;0.596058;0.594024;0.594730;0.595950;0.592491;0.594394;0.596323;0.589125;0.595702;0.594448;0.595247;0.594868;0.599824;0.607396;0.598613;0.611705;0.614832;0.616390;0.611300;0.619704;0.617256;0.623759;0.628276;0.638903;0.639019;0.649228;0.651149;0.654039;0.661810;0.667214;0.676051;0.678404;0.686135;0.693685;0.699065;0.708260;0.715955;0.720133;0.727183;0.732992;0.744593;0.749914;0.759413;0.760583;0.768583;0.777742;0.785611;0.794373;0.792942;0.799828;0.805814;0.812521;0.814687;0.827138;0.827203;0.830639;0.837770;0.838484;0.835460;0.841927;0.844434;0.845547;0.844363;0.839887;0.839321;0.840933;0.840901;0.837531;0.841580;0.834059;0.826980;0.828161;0.821124;0.818692;0.810294;0.804663;0.798814;0.797784;0.787389;0.777939;0.776103;0.762485;0.757397;0.747616;0.743474;0.731176;0.724249;0.711717;0.708409;0.699588;0.691028;0.680031;0.678401;0.666712;0.658818;0.649116;0.646049;0.637272;0.626840;0.623608;0.612293;0.610668;0.601564;0.596046
0.518489;0.517792;0.521010;0.520331;0.521101;0.521784;0.523727;0.523914;0.529543;0.530816;0.531533;0.531954;0.535095;0.535348;0.537087;0.536115;0.546285;0.544049;0.548912;0.548364;0.554385;0.549253;0.556871;0.558236;0.560132;0.558514;0.567864;0.567031;0.564638;0.570821;0.568657;0.580124;0.575631;0.576014;0.581958;0.584771;0.589086;0.592591;0.596148;0.598895;0.598604;0.600006;0.606159;0.605872;0.611238;0.610442;0.613962;0.611753;0.620104;0.618753;0.622180;0.626536;0.635591;0.633130;0.636775;0.639120;0.642369;0.651631;0.648432;0.651984;0.655349;0.654310;0.662814;0.661330;0.667942;0.671652;0.669317;0.676135;0.679539;0.684186;0.686845;0.689895;0.693987;0.695331;0.695445;0.699006;0.700904;0.705455;0.708022;0.711973;0.714678;0.721119;0.720734;0.727018;0.729509;0.729737;0.730791;0.735997;0.740015;0.739961;0.743159;0.743367;0.752219;0.750887;0.755026;0.757254;0.757807;0.754823;0.763734;0.759715;0.764654;0.771787;0.770200;0.772444;0.772694;0.774788;0.777170;0.784409;0.784786;0.777594;0.780300;0.780424;0.782914;0.783388;0.787024;0.785315;0.788301;0.784488;0.784635;0.784043;0.783126;0.779813;0.784768;0.777144;0.773938;0.774459;0.774114;0.770729;0.772570;0.762159;0.765628;0.760759;0.759354;0.757637;0.750604;0.745473;0.744999;0.742326;0.736796;0.734516;0.731892;0.724335;0.720254;0.719514;0.711768;0.708879;0.704587;0.701289;0.698057;0.690646;0.687417;0.687663;0.682702;0.677519;0.672131;0.665667;0.666151;0.661405;0.654169;0.653923;0.648787;0.643187;0.638932;0.637930;0.632709;0.636753;0.621641;0.623983;0.621867;0.616785;0.607698;0.606607;0.608702;0.599426;0.594541;0.595226;0.591200;0.586334;0.585577;0.576907;0.574315;0.574812;0.567139;0.563871;0.561335;0.559578;0.558200;0.556946;0.553060;0.551290;0.549005;0.541565;0.544775;0.542499;0.537643;0.537038;0.538255;0.530654;0.531904;0.527174
0.514672;0.520385;0.515386;0.520276;0.517639;0.519595;0.521649;0.519329;0.524385;0.527841;0.526447;0.527138;0.529638;0.531660;0.532360;0.536528;0.539306;0.533690;0.540869;0.537295;0.540736;0.541371;0.544843;0.546512;0.550481;0.551232;0.553495;0.551818;0.551672;0.557355;0.558598;0.556470;0.563262;0.567481;0.563881;0.567038;0.568285;0.567968;0.570096;0.573912;0.574889;0.574382;0.572241;0.580831;0.586101;0.588023;0.584835;0.585217;0.583541;0.594162;0.590073;0.591178;0.589525;0.592150;0.596698;0.594225;0.601703;0.603222;0.601946;0.598952;0.604900;0.606522;0.606649;0.605785;0.608986;0.603633;0.609796;0.611435;0.611660;0.608423;0.613190;0.606703;0.614240;0.614463;0.616093;0.615327;0.613163;0.612518;0.610737;0.610787;0.609355;0.616630;0.611337;0.616061;0.614523;0.609483;0.611520;0.612429;0.610277;0.611545;0.615143;0.611741;0.613299;0.615727;0.615771;0.616676;0.612292;0.611414;0.612531;0.611989;0.608122;0.614190;0.615571;0.618228;0.615229;0.614403;0.619922;0.618554;0.625172;0.622878;0.624365;0.631755;0.631201;0.635166;0.636663;0.642224;0.639114;0.645252;0.651396;0.652499;0.656082;0.662007;0.670044;0.665754;0.678482;0.678762;0.682255;0.695866;0.696904;0.702122;0.712678;0.715785;0.722459;0.729702;0.737269;0.736436;0.745844;0.758079;0.761669;0.767271;0.771948;0.785440;0.792097;0.796384;0.796695;0.798037;0.807001;0.807861;0.814270;0.820592;0.828756;0.828292;0.831209;0.833770;0.835094;0.837517;0.838958;0.841040;0.841715;0.838582;0.835954;0.837833;0.833446;0.833106;0.826765;0.822735;0.821349;0.813557;0.811494;0.804980;0.801911;0.791344;0.791212;0.783907;0.772909;0.773049;0.763229;0.753740;0.752558;0.736982;0.731573;0.720119;0.717488;0.708378;0.698578;0.691447;0.683785;0.680759;0.665707;0.664171;0.652115;0.644719;0.640972;0.635838;0.625024;0.614757;0.609321;0.606593;0.594125;0.590660
0.533432;0.535930;0.537648;0.537612;0.541956;0.547275;0.549229;0.547909;0.549788;0.557635;0.555876;0.564241;0.563733;0.569399;0.568777;0.571845;0.578281;0.582140;0.581433;0.586183;0.588233;0.589293;0.593847;0.595330;0.596219;0.601534;0.600517;0.604969;0.607303;0.609891;0.615523;0.617131;0.615599;0.620861;0.618912;0.618394;0.615692;0.617408;0.627710;0.623182;0.620778;0.621656;0.622077;0.624388;0.622686;0.620048;0.624580;0.614229;0.621061;0.615130;0.614460;0.614900;0.610153;0.609926;0.606474;0.606897;0.604562;0.602935;0.600834;0.601206;0.599657;0.597956;0.597306;0.590947;0.594307;0.590987;0.587449;0.588925;0.589732;0.586037;0.587053;0.581783;0.579703;0.585650;0.582175;0.580933;0.582978;0.580734;0.586088;0.584367;0.586433;0.591151;0.591315;0.589704;0.594417;0.595108;0.598802;0.598337;0.603414;0.602280;0.609240;0.614140;0.619743;0.627563;0.626415;0.629830;0.634813;0.636396;0.641768;0.645307;0.649747;0.652757;0.656675;0.665208;0.671275;0.674274;0.676019;0.685425;0.691603;0.691214;0.697947;0.697848;0.705014;0.709618;0.719819;0.718420;0.718302;0.728516;0.732298;0.731700;0.731933;0.741406;0.744998;0.751099;0.748737;0.753555;0.757929;0.756932;0.758238;0.761663;0.761798;0.767066;0.769931;0.769572;0.771264;0.770180;0.770282;0.771819;0.776889;0.776464;0.780112;0.776016;0.780502;0.780265;0.774303;0.772382;0.773443;0.772261;0.775320;0.772821;0.770395;0.772502;0.769089;0.765945;0.762919;0.763937;0.757981;0.762188;0.751530;0.754093;0.754050;0.742761;0.742405;0.738907;0.734900;0.731739;0.724760;0.722901;0.715137;0.712914;0.703324;0.701882;0.695312;0.691364;0.683944;0.680953;0.674684;0.669189;0.669073;0.662818;0.648671;0.649665;0.638781;0.636174;0.629723;0.624303;0.618124;0.612657;0.612124;0.601353;0.601411;0.591498;0.587471;0.587293;0.579614;0.572626;0.569842;0.565034;0.559772;0.556880
0.548131;0.553277;0.552924;0.553804;0.560623;0.565140;0.567187;0.574608;0.576199;0.576594;0.583513;0.591439;0.592237;0.598545;0.600316;0.606601;0.611795;0.617078;0.615719;0.621456;0.628657;0.630993;0.638197;0.644063;0.644581;0.644817;0.650100;0.650155;0.657783;0.662140;0.664697;0.666123;0.671634;0.669041;0.674210;0.676335;0.678560;0.680116;0.680048;0.683040;0.678929;0.683596;0.687190;0.686288;0.683624;0.684548;0.681558;0.681800;0.679957;0.682395;0.670970;0.676769;0.678533;0.675523;0.669156;0.670417;0.669518;0.669203;0.664855;0.662174;0.663155;0.662774;0.658509;0.659811;0.656035;0.654056;0.649434;0.649226;0.645549;0.643332;0.642601;0.641719;0.638909;0.641455;0.638960;0.639722;0.638697;0.639949;0.641734;0.641450;0.640750;0.642169;0.643620;0.643581;0.647505;0.645458;0.650679;0.643440;0.650262;0.652904;0.654323;0.658764;0.658808;0.662902;0.668571;0.669314;0.668891;0.680132;0.675582;0.680762;0.685779;0.685199;0.688204;0.692096;0.696883;0.699528;0.697850;0.702277;0.705726;0.705806;0.708181;0.716413;0.718383;0.722371;0.725412;0.719851;0.721182;0.724096;0.729537;0.729968;0.729093;0.729862;0.732956;0.734855;0.731105;0.730863;0.731690;0.732708;0.730152;0.724168;0.723554;0.725331;0.724462;0.726501;0.720690;0.719646;0.721136;0.718446;0.714331;0.710487;0.711600;0.703300;0.701180;0.700387;0.699196;0.695978;0.693909;0.691856;0.684019;0.683762;0.676738;0.684209;0.670431;0.668489;0.669849;0.665601;0.660929;0.661398;0.652199;0.648481;0.644675;0.641917;0.637639;0.635825;0.631048;0.624830;0.627390;0.622331;0.616523;0.614693;0.606946;0.607814;0.598334;0.601798;0.593117;0.591833;0.592359;0.587080;0.574758;0.580339;0.575596;0.571830;0.570092;0.565246;0.564050;0.560683;0.556072;0.555948;0.552424;0.547148;0.545175;0.544591;0.542998;0.542584;0.535881;0.530960;0.528288;0.523603;0.524875;0.524166
0.580109;0.582938;0.586675;0.593662;0.599592;0.604824;0.616227;0.622357;0.625348;0.632021;0.637410;0.646739;0.652402;0.660786;0.667782;0.678572;0.683193;0.688200;0.697332;0.697417;0.712318;0.713936;0.726620;0.731583;0.732174;0.744354;0.750034;0.756025;0.761235;0.772513;0.770271;0.777011;0.780911;0.787040;0.789168;0.797752;0.796103;0.799556;0.804728;0.804888;0.807940;0.808986;0.806772;0.808707;0.810232;0.813722;0.813337;0.814501;0.810545;0.805236;0.804817;0.802620;0.800178;0.796625;0.801609;0.791333;0.788534;0.783072;0.784883;0.776233;0.773570;0.769334;0.763933;0.761746;0.752489;0.746234;0.744645;0.733258;0.735024;0.727109;0.726920;0.719949;0.716374;0.712247;0.708573;0.699277;0.697742;0.694912;0.687248;0.685916;0.684374;0.681398;0.676344;0.671488;0.668234;0.660239;0.654400;0.652678;0.654989;0.650286;0.650708;0.641893;0.638406;0.632503;0.637881;0.634326;0.630946;0.623631;0.627515;0.624085;0.621207;0.621732;0.616525;0.616702;0.616697;0.610998;0.607428;0.605729;0.613642;0.607724;0.606446;0.602677;0.599742;0.603555;0.602894;0.602330;0.601361;0.600932;0.602945;0.601162;0.597935;0.598745;0.594750;0.600316;0.597150;0.592442;0.593790;0.592154;0.591939;0.596678;0.593060;0.597479;0.596938;0.600085;0.598226;0.596319;0.596058;0.595589;0.595831;0.595381;0.596342;0.596582;0.593782;0.597744;0.601371;0.595408;0.590612;0.596028;0.596057;0.589767;0.595966;0.594097;0.591288;0.589308;0.596223;0.593618;0.587917;0.589269;0.590280;0.590336;0.588678;0.588500;0.582438;0.584684;0.578009;0.581501;0.581302;0.575709;0.575430;0.575435;0.568621;0.573480;0.570159;0.567445;0.567042;0.564267;0.563740;0.567472;0.554295;0.559586;0.553028;0.552073;0.550690;0.548464;0.548120;0.544416;0.538490;0.538164;0.541973;0.538002;0.537433;0.530112;0.529958;0.531403;0.529295;0.526229;0.525095;0.523225;0.521869;0.522116
0.508535;0.509611;0.512746;0.516636;0.515149;0.514012;0.511947;0.515985;0.512060;0.511285;0.514344;0.516072;0.519481;0.520168;0.518844;0.521294;0.525392;0.524584;0.525494;0.524519;0.528584;0.528018;0.534496;0.531801;0.533968;0.540332;0.536321;0.538721;0.539026;0.537181;0.540855;0.539871;0.547061;0.543001;0.542577;0.552999;0.550394;0.556678;0.553489;0.553488;0.557998;0.561720;0.559745;0.562169;0.565578;0.569047;0.571485;0.566191;0.571960;0.576494;0.576021;0.578778;0.580104;0.579614;0.581215;0.581696;0.586648;0.584952;0.591707;0.590790;0.592936;0.596232;0.599023;0.591861;0.595658;0.597750;0.604495;0.602548;0.600225;0.601776;0.604748;0.604348;0.610063;0.606759;0.608605;0.608726;0.608250;0.605232;0.608367;0.617008;0.607375;0.612342;0.614654;0.611308;0.606402;0.610604;0.611948;0.609506;0.614744;0.609064;0.611608;0.606544;0.609819;0.608965;0.607700;0.608711;0.607346;0.610959;0.607274;0.607939;0.611589;0.617742;0.611979;0.611005;0.609085;0.611887;0.615895;0.614877;0.620139;0.618947;0.621069;0.618591;0.627274;0.629079;0.632608;0.633853;0.641445;0.641986;0.648241;0.652837;0.655153;0.660488;0.665000;0.669862;0.674989;0.680840;0.685983;0.695097;0.705723;0.709703;0.716827;0.722390;0.726563;0.732616;0.744729;0.750066;0.759519;0.764025;0.769335;0.776775;0.788018;0.790421;0.799001;0.803228;0.809333;0.814788;0.826670;0.827124;0.832270;0.842760;0.841265;0.843509;0.851216;0.851213;0.853660;0.852727;0.859231;0.859027;0.853749;0.858820;0.858321;0.852715;0.856178;0.851643;0.847031;0.847032;0.837870;0.838804;0.831077;0.829158;0.822697;0.816760;0.811221;0.802882;0.799425;0.787940;0.782713;0.773234;0.766417;0.752946;0.750245;0.741214;0.736204;0.724243;0.717121;0.703473;0.696955;0.691588;0.682684;0.671901;0.664724;0.656052;0.650298;0.640960;0.631182;0.622678;0.622550;0.612369;0.604970;0.598162
0.506366;0.505865;0.505244;0.507151;0.506461;0.506663;0.510816;0.513764;0.507763;0.507535;0.506738;0.505719;0.510105;0.510632;0.510243;0.511326;0.510822;0.508183;0.513181;0.513112;0.512229;0.520351;0.510485;0.515854;0.513839;0.514702;0.516667;0.517871;0.520198;0.524637;0.524987;0.525868;0.524337;0.524211;0.524296;0.529183;0.525486;0.526458;0.531928;0.531352;0.535280;0.533309;0.530642;0.535703;0.540236;0.538615;0.541265;0.543177;0.544557;0.544854;0.552123;0.548659;0.551526;0.548528;0.554700;0.555011;0.564140;0.564635;0.565844;0.568137;0.570971;0.572798;0.576458;0.579852;0.587333;0.589531;0.588004;0.591705;0.600147;0.597412;0.606146;0.613880;0.611719;0.615583;0.623281;0.625294;0.632174;0.638594;0.643713;0.644202;0.653151;0.659150;0.656074;0.669827;0.682736;0.679854;0.691590;0.690477;0.699226;0.709063;0.709853;0.719540;0.728669;0.732497;0.739559;0.744933;0.760844;0.759212;0.768045;0.774970;0.784502;0.786586;0.791750;0.794651;0.801974;0.809115;0.815465;0.819287;0.824743;0.831029;0.833716;0.837525;0.844683;0.839440;0.848076;0.843666;0.854272;0.854121;0.857067;0.863807;0.858863;0.858549;0.862848;0.865614;0.858582;0.857259;0.858922;0.858219;0.848156;0.852803;0.846056;0.843975;0.843372;0.840238;0.835154;0.829014;0.824795;0.819508;0.810650;0.807392;0.806591;0.800060;0.791439;0.790483;0.783657;0.779489;0.772083;0.766202;0.759137;0.754685;0.750621;0.741341;0.740199;0.728977;0.720176;0.720440;0.714041;0.708070;0.697560;0.694540;0.689377;0.684711;0.675871;0.676776;0.669665;0.667994;0.657261;0.649296;0.645476;0.644471;0.637436;0.633590;0.626627;0.623380;0.618922;0.610071;0.611034;0.602290;0.600153;0.598087;0.584655;0.584429;0.580784;0.574942;0.571735;0.567889;0.567861;0.561693;0.558716;0.558850;0.554469;0.550582;0.545922;0.545003;0.539673;0.539636;0.535129;0.536390;0.526717;0.522823
0.510122;0.512853;0.521494;0.517809;0.515450;0.524555;0.521718;0.527135;0.526601;0.529613;0.530173;0.528192;0.533845;0.537040;0.534912;0.540480;0.544209;0.543829;0.549898;0.551831;0.555397;0.559765;0.559121;0.567048;0.570638;0.574698;0.580841;0.580993;0.585850;0.591235;0.597718;0.600978;0.611776;0.607549;0.617339;0.624779;0.630306;0.634664;0.643326;0.649408;0.655434;0.664784;0.672394;0.678192;0.684972;0.694075;0.701901;0.706736;0.717035;0.726706;0.734818;0.737065;0.749807;0.757848;0.766134;0.775827;0.782426;0.792068;0.802194;0.813281;0.821102;0.824806;0.833161;0.840553;0.849418;0.853298;0.859199;0.863706;0.873616;0.873237;0.885556;0.890627;0.895822;0.896047;0.900277;0.901033;0.904855;0.904986;0.909432;0.912964;0.907028;0.911548;0.907349;0.912018;0.904701;0.902800;0.899022;0.896494;0.894488;0.891157;0.886511;0.884248;0.874942;0.873022;0.865677;0.854111;0.855614;0.846901;0.834536;0.830136;0.821855;0.812521;0.805165;0.798167;0.792577;0.777299;0.775138;0.767192;0.755645;0.750423;0.737075;0.735899;0.728162;0.715193;0.714731;0.703629;0.699169;0.691027;0.689467;0.679205;0.669682;0.664064;0.657330;0.653657;0.643680;0.647109;0.634854;0.632086;0.627455;0.620702;0.616355;0.612041;0.608628;0.602004;0.598173;0.598512;0.592971;0.590514;0.587351;0.581804;0.581511;0.576177;0.573651;0.576584;0.569349;0.569181;0.567390;0.565119;0.560801;0.555884;0.554550;0.557173;0.557407;0.551356;0.549128;0.549475;0.550200;0.548126;0.546112;0.545224;0.545314;0.541848;0.537754;0.541281;0.539386;0.540434;0.535486;0.536090;0.534256;0.535937;0.534870;0.530220;0.532055;0.531250;0.524228;0.526659;0.530353;0.529387;0.528909;0.529461;0.523084;0.522601;0.525843;0.525577;0.520903;0.523544;0.518413;0.523306;0.523657;0.519719;0.522007;0.516525;0.523665;0.518008;0.520707;0.521150;0.519881;0.514803;0.515493;0.514285
0.571279;0.571427;0.577004;0.584116;0.587969;0.594435;0.603263;0.604981;0.614071;0.618500;0.628704;0.625553;0.634065;0.642646;0.648135;0.652208;0.660621;0.671952;0.668617;0.685532;0.684085;0.695318;0.697101;0.708530;0.711989;0.711439;0.720898;0.731321;0.732848;0.739291;0.748770;0.752033;0.754441;0.758756;0.758020;0.761983;0.771806;0.776770;0.772915;0.778394;0.780430;0.778551;0.781865;0.780091;0.784773;0.782168;0.788828;0.783726;0.785614;0.780749;0.776643;0.779932;0.779884;0.776405;0.773901;0.777209;0.771239;0.770762;0.768626;0.768414;0.756956;0.756576;0.752316;0.753011;0.746681;0.746837;0.737743;0.739707;0.734210;0.732259;0.724507;0.720934;0.720996;0.714634;0.714238;0.705389;0.704582;0.707498;0.702674;0.695149;0.690531;0.687699;0.677614;0.681540;0.680652;0.674817;0.669880;0.665395;0.664616;0.663654;0.655372;0.657689;0.655066;0.650506;0.645207;0.644619;0.645166;0.643087;0.639623;0.636083;0.635469;0.634844;0.633116;0.628822;0.623500;0.624495;0.620689;0.620811;0.616870;0.620405;0.612938;0.615594;0.617324;0.612794;0.614175;0.612185;0.617636;0.613727;0.608572;0.610468;0.610363;0.602764;0.602839;0.605003;0.605108;0.606095;0.607253;0.604210;0.603893;0.604653;0.609287;0.605554;0.602077;0.608540;0.607946;0.601675;0.607548;0.607828;0.607536;0.609583;0.606112;0.607300;0.605578;0.606827;0.606169;0.605410;0.609985;0.608400;0.604714;0.608890;0.606764;0.609408;0.610730;0.605658;0.608293;0.607890;0.604438;0.602751;0.602073;0.602140;0.601116;0.600392;0.598017;0.593637;0.597420;0.594897;0.593904;0.590511;0.592531;0.582500;0.585638;0.583687;0.583068;0.580928;0.575133;0.571973;0.568162;0.569104;0.567282;0.567979;0.561958;0.558253;0.555438;0.553303;0.550939;0.548150;0.547013;0.545637;0.542737;0.539391;0.540193;0.537268;0.533242;0.534615;0.531483;0.527755;0.524292;0.522361;0.526827;0.523558
0.503621;0.502998;0.498415;0.503625;0.501769;0.503405;0.507200;0.502980;0.505427;0.502679;0.503177;0.501198;0.502257;0.505103;0.505956;0.513701;0.506246;0.509392;0.507380;0.503502;0.507304;0.509066;0.510020;0.512219;0.514152;0.517524;0.515540;0.511174;0.516723;0.515279;0.515067;0.516141;0.517220;0.521210;0.523563;0.528276;0.525210;0.532141;0.532760;0.529133;0.533738;0.536352;0.538473;0.544345;0.544742;0.551891;0.546725;0.559272;0.554930;0.557794;0.559571;0.568527;0.568297;0.572168;0.577274;0.577879;0.581637;0.584107;0.588193;0.594659;0.595763;0.598259;0.602463;0.608545;0.611115;0.610200;0.615571;0.619712;0.618364;0.627053;0.626914;0.633434;0.638903;0.639982;0.641435;0.639636;0.646450;0.651731;0.655427;0.658429;0.657730;0.664755;0.662657;0.664944;0.667922;0.668148;0.674839;0.677896;0.677024;0.681989;0.683512;0.681476;0.687302;0.687240;0.692226;0.692204;0.689728;0.696038;0.699162;0.700965;0.702087;0.704908;0.705195;0.708283;0.709746;0.707838;0.712787;0.715800;0.713802;0.718701;0.719080;0.720521;0.725938;0.727954;0.727864;0.733870;0.732476;0.736071;0.737319;0.739767;0.742455;0.746875;0.748550;0.751556;0.748740;0.752115;0.755395;0.760848;0.758320;0.763178;0.767407;0.771491;0.772941;0.777175;0.780433;0.784139;0.784060;0.783790;0.790321;0.788523;0.797754;0.795596;0.797149;0.802721;0.795232;0.800085;0.803079;0.800105;0.803499;0.800900;0.805299;0.805231;0.807197;0.800862;0.806540;0.798690;0.805350;0.805297;0.796163;0.800176;0.788293;0.788166;0.782126;0.782722;0.778134;0.781832;0.771725;0.763590;0.760353;0.757591;0.754924;0.746066;0.745004;0.735073;0.730312;0.720930;0.718118;0.708571;0.702710;0.702330;0.690290;0.684570;0.676621;0.670888;0.668919;0.661236;0.651991;0.651423;0.640573;0.635639;0.630148;0.622630;0.616792;0.613945;0.600341;0.600694;0.590583;0.592845;0.585159;0.582081
0.532866;0.538969;0.538487;0.535994;0.542977;0.548821;0.554693;0.552829;0.551560;0.558001;0.562068;0.566514;0.565222;0.571649;0.573928;0.578240;0.579050;0.584091;0.583644;0.590776;0.589480;0.596586;0.598514;0.602371;0.607917;0.608496;0.609173;0.614862;0.618278;0.616891;0.623774;0.623878;0.627861;0.628071;0.631819;0.629070;0.629244;0.630002;0.636456;0.639807;0.637274;0.638534;0.637651;0.635307;0.637951;0.636762;0.641573;0.638779;0.644041;0.640047;0.645544;0.635770;0.635856;0.637246;0.635254;0.637633;0.639687;0.638024;0.639327;0.637107;0.636785;0.631782;0.635075;0.640517;0.636877;0.638583;0.640857;0.636311;0.636205;0.639904;0.641047;0.640166;0.639046;0.643258;0.646112;0.648308;0.651381;0.652636;0.658036;0.658992;0.660162;0.665085;0.672870;0.675977;0.683833;0.682464;0.689041;0.693493;0.698670;0.702028;0.709512;0.711691;0.722065;0.729945;0.735117;0.736480;0.745068;0.755131;0.754020;0.761236;0.768494;0.777222;0.783387;0.784794;0.791171;0.798710;0.806416;0.809959;0.811456;0.815590;0.817131;0.818074;0.829675;0.828473;0.824886;0.830721;0.832077;0.832300;0.839019;0.839200;0.832687;0.831353;0.833458;0.830309;0.825762;0.824980;0.819120;0.816936;0.814241;0.809509;0.802576;0.798054;0.792414;0.791490;0.783660;0.775854;0.771492;0.764940;0.758644;0.748741;0.740421;0.733919;0.725764;0.718981;0.711916;0.704261;0.698250;0.686405;0.682884;0.674871;0.664655;0.664114;0.650393;0.640161;0.640843;0.632833;0.625248;0.622547;0.614696;0.609655;0.605933;0.600828;0.592952;0.585053;0.582157;0.576695;0.573020;0.572329;0.563392;0.564351;0.558985;0.553889;0.547743;0.547999;0.546620;0.539587;0.540516;0.538274;0.538056;0.530811;0.527771;0.526250;0.520941;0.519805;0.522323;0.517968;0.522638;0.519612;0.515243;0.510995;0.514719;0.512680;0.512093;0.509640;0.510837;0.507597;0.510991;0.505833;0.506737;0.503442
0.569272;0.571589;0.579835;0.581394;0.585473;0.594862;0.598206;0.605018;0.610770;0.616107;0.623270;0.628093;0.634271;0.638928;0.641178;0.647224;0.655850;0.663731;0.663455;0.676877;0.679726;0.689225;0.691997;0.703118;0.702485;0.710258;0.712409;0.719600;0.724216;0.727882;0.734973;0.740014;0.742202;0.742588;0.748915;0.749463;0.757277;0.756162;0.756085;0.753991;0.755810;0.753204;0.759440;0.758918;0.756902;0.754732;0.749032;0.751341;0.749134;0.747056;0.745687;0.744074;0.739138;0.730659;0.731876;0.726114;0.723905;0.724487;0.714573;0.708690;0.707904;0.702281;0.700771;0.693302;0.686547;0.687285;0.681218;0.677795;0.671219;0.669035;0.669461;0.662491;0.659551;0.655926;0.653031;0.651780;0.650043;0.641991;0.638944;0.640847;0.637162;0.638952;0.642659;0.638304;0.633554;0.633175;0.635446;0.633033;0.635191;0.640037;0.634184;0.635532;0.634050;0.639587;0.639051;0.640604;0.646547;0.644755;0.643938;0.653942;0.648912;0.653409;0.653206;0.660162;0.663591;0.664147;0.661054;0.667871;0.666996;0.668297;0.670981;0.673100;0.676437;0.675239;0.678628;0.682242;0.676253;0.680863;0.676637;0.680430;0.685755;0.680643;0.683937;0.684457;0.685915;0.679770;0.683837;0.680264;0.680546;0.677500;0.679205;0.678755;0.679400;0.672877;0.672424;0.674405;0.668388;0.663373;0.660611;0.663153;0.661539;0.657623;0.654114;0.649627;0.647753;0.646116;0.640637;0.639196;0.637367;0.630578;0.626684;0.633057;0.632261;0.626029;0.617936;0.619707;0.614622;0.614031;0.609458;0.605190;0.601478;0.599457;0.599954;0.594405;0.592652;0.591661;0.588316;0.586607;0.584769;0.581808;0.576179;0.571910;0.573047;0.572057;0.564845;0.562691;0.559053;0.561287;0.551518;0.558256;0.551790;0.546621;0.546538;0.546650;0.540142;0.539791;0.534795;0.534655;0.534610;0.532041;0.531585;0.524085;0.523964;0.524419;0.522741;0.520114;0.517875;0.518056;0.520496;0.515023
0.570623;0.583741;0.583269;0.586416;0.594627;0.603030;0.601695;0.610185;0.617099;0.623449;0.631914;0.638445;0.639751;0.644808;0.656096;0.656688;0.666676;0.678899;0.678282;0.682032;0.690038;0.695988;0.708232;0.709658;0.714263;0.727914;0.724298;0.732972;0.741466;0.741792;0.746543;0.749145;0.755936;0.758427;0.760050;0.766403;0.766606;0.771497;0.771818;0.771406;0.773635;0.773656;0.771545;0.774331;0.774832;0.764575;0.771437;0.769651;0.768448;0.764107;0.761775;0.759876;0.749884;0.753654;0.746999;0.747585;0.739671;0.737371;0.730139;0.727492;0.723838;0.722763;0.712326;0.707712;0.702781;0.697483;0.695414;0.687544;0.684490;0.678554;0.675104;0.668862;0.660014;0.660708;0.652480;0.649041;0.648208;0.639067;0.640594;0.636256;0.632569;0.627970;0.620019;0.620251;0.619881;0.614095;0.613390;0.611224;0.609435;0.603474;0.608718;0.601213;0.596817;0.601244;0.601753;0.595554;0.597810;0.596417;0.597009;0.593527;0.593333;0.590165;0.589767;0.590390;0.592668;0.589730;0.589463;0.592445;0.592832;0.597581;0.595414;0.596742;0.596992;0.598654;0.597124;0.599948;0.598692;0.601269;0.603993;0.601664;0.608452;0.609280;0.609113;0.611416;0.612579;0.612350;0.610849;0.615648;0.620345;0.621495;0.621323;0.621896;0.623007;0.631344;0.632360;0.631701;0.631768;0.640293;0.637332;0.645581;0.639946;0.641629;0.646398;0.648498;0.650174;0.646505;0.649662;0.654646;0.653186;0.649946;0.656175;0.653046;0.658325;0.660185;0.653493;0.655910;0.656957;0.651935;0.654351;0.650838;0.653246;0.650016;0.648884;0.649347;0.644622;0.649742;0.642496;0.641277;0.634858;0.631610;0.633351;0.629494;0.630584;0.621717;0.616566;0.611503;0.610081;0.609384;0.609286;0.602209;0.602136;0.596981;0.591118;0.584375;0.585066;0.579629;0.572542;0.573077;0.573273;0.561915;0.561349;0.560097;0.557488;0.552641;0.553406;0.547174;0.542947;0.540434;0.539638;0.534643
0.571735;0.576918;0.577292;0.582402;0.588212;0.593401;0.598535;0.602087;0.609890;0.611476;0.619105;0.627299;0.635009;0.638700;0.647774;0.651876;0.656627;0.661759;0.673382;0.678883;0.677905;0.687285;0.696312;0.701390;0.706479;0.709311;0.717955;0.715787;0.721692;0.725006;0.732501;0.732996;0.739437;0.745375;0.742876;0.751238;0.746220;0.751755;0.756518;0.755127;0.752696;0.754860;0.759088;0.754296;0.749501;0.754445;0.756839;0.751154;0.749320;0.748207;0.738592;0.737684;0.732739;0.731093;0.732500;0.723929;0.720382;0.717917;0.712682;0.709808;0.702710;0.698149;0.694993;0.692636;0.686007;0.684008;0.677496;0.678113;0.667189;0.669109;0.661564;0.657895;0.650793;0.655113;0.649152;0.643486;0.644029;0.640757;0.641065;0.634000;0.639772;0.635818;0.638536;0.632055;0.634830;0.633534;0.626972;0.634867;0.634629;0.637333;0.637350;0.633841;0.639471;0.642354;0.644200;0.643038;0.646880;0.648329;0.649450;0.649955;0.653171;0.655221;0.659472;0.658338;0.667220;0.667034;0.673225;0.670911;0.675156;0.679756;0.678523;0.685296;0.685343;0.683130;0.685230;0.688633;0.691973;0.690636;0.692771;0.693485;0.690436;0.689933;0.693919;0.690451;0.694675;0.693703;0.692926;0.688892;0.690524;0.687183;0.687815;0.685646;0.678115;0.684342;0.682878;0.679790;0.675434;0.678171;0.675557;0.665854;0.668178;0.664346;0.660669;0.658476;0.651745;0.654516;0.647574;0.646040;0.645097;0.644410;0.636094;0.632793;0.632196;0.625256;0.629689;0.626921;0.618770;0.616809;0.610598;0.614300;0.603581;0.606293;0.602967;0.598671;0.595732;0.594987;0.592065;0.584436;0.584113;0.581196;0.578674;0.579933;0.572088;0.572877;0.569219;0.566722;0.556754;0.562234;0.558318;0.559155;0.557975;0.551363;0.547717;0.546622;0.543124;0.541867;0.541728;0.536860;0.535763;0.533367;0.539736;0.531731;0.527821;0.523344;0.532660;0.524425;0.522330;0.520408;0.513714;0.519945
0.551100;0.557906;0.564323;0.561307;0.569763;0.567848;0.578440;0.575938;0.582347;0.587697;0.595364;0.596680;0.601276;0.606593;0.612919;0.621252;0.629156;0.632096;0.636003;0.642459;0.646208;0.650750;0.653010;0.659418;0.668530;0.671907;0.674736;0.678009;0.689649;0.694218;0.697225;0.703191;0.706996;0.707432;0.717247;0.719417;0.721435;0.729081;0.728692;0.730425;0.736436;0.739294;0.743207;0.744429;0.747276;0.752536;0.754854;0.757667;0.758317;0.762245;0.764881;0.763066;0.761994;0.766728;0.766980;0.768290;0.768194;0.765541;0.772654;0.770982;0.771174;0.769107;0.779582;0.775275;0.772256;0.771033;0.775234;0.774389;0.772253;0.768707;0.771698;0.765932;0.768002;0.770871;0.767753;0.766628;0.766120;0.763784;0.762477;0.763679;0.758617;0.757355;0.759694;0.748273;0.748495;0.749062;0.747764;0.747409;0.741496;0.738046;0.737305;0.735441;0.731405;0.725152;0.725964;0.722479;0.715579;0.712694;0.714216;0.705322;0.707976;0.701654;0.699593;0.696554;0.693038;0.691731;0.690258;0.686697;0.682364;0.682211;0.676179;0.675687;0.671974;0.664868;0.668204;0.664331;0.660146;0.652531;0.652453;0.650589;0.644625;0.642691;0.639666;0.638021;0.631710;0.631387;0.631478;0.631941;0.626680;0.623182;0.619357;0.618784;0.615212;0.615332;0.613145;0.612419;0.607048;0.606967;0.605623;0.600317;0.596357;0.600147;0.593963;0.594688;0.591963;0.589580;0.588064;0.584207;0.580421;0.578194;0.577384;0.576870;0.576036;0.571231;0.574422;0.570854;0.571434;0.563752;0.560919;0.560101;0.560984;0.554236;0.554380;0.554482;0.552428;0.550950;0.551583;0.544900;0.548095;0.542504;0.540087;0.541118;0.537081;0.537753;0.535410;0.533737;0.532192;0.531686;0.531318;0.525343;0.524703;0.524356;0.524592;0.520526;0.515524;0.516870;0.517393;0.515877;0.515071;0.516706;0.514008;0.513045;0.507827;0.508917;0.510674;0.507971;0.505501;0.509101;0.501289;0.505996
0.527546;0.529339;0.535564;0.536086;0.539930;0.543660;0.546458;0.545030;0.550433;0.552914;0.551272;0.554331;0.556491;0.561888;0.558783;0.564997;0.568325;0.573362;0.578557;0.576757;0.580082;0.581521;0.585342;0.585796;0.581039;0.590232;0.588081;0.599562;0.601138;0.598169;0.602695;0.602879;0.607604;0.605022;0.608279;0.613525;0.611453;0.612355;0.616642;0.613007;0.612764;0.614771;0.610372;0.617290;0.616774;0.608482;0.614908;0.615071;0.612065;0.615948;0.611703;0.614908;0.611174;0.613145;0.611832;0.613484;0.608990;0.608730;0.605640;0.612679;0.609363;0.610795;0.606400;0.605306;0.609789;0.608224;0.611450;0.613820;0.608408;0.614192;0.609607;0.620427;0.619027;0.622324;0.625150;0.627712;0.629324;0.637205;0.636868;0.637821;0.646193;0.651673;0.656321;0.658692;0.663796;0.666001;0.678234;0.679433;0.691919;0.697148;0.698553;0.708384;0.711989;0.721091;0.730725;0.734903;0.742765;0.749057;0.762134;0.764569;0.771760;0.778218;0.784370;0.796526;0.802525;0.807937;0.810006;0.824887;0.828324;0.827409;0.835879;0.842742;0.843790;0.842982;0.848979;0.850777;0.852915;0.855786;0.855589;0.856721;0.856355;0.854161;0.853882;0.857471;0.853955;0.846563;0.847500;0.841869;0.837775;0.829866;0.832556;0.826893;0.820101;0.814308;0.807146;0.801125;0.794568;0.786988;0.779579;0.776527;0.766299;0.753316;0.750720;0.744149;0.732178;0.728835;0.714718;0.712577;0.703538;0.701103;0.689172;0.682906;0.671143;0.666620;0.657785;0.651200;0.645762;0.637560;0.629793;0.621339;0.620519;0.606865;0.607293;0.600436;0.599418;0.593067;0.583018;0.581408;0.579169;0.572398;0.572376;0.564314;0.560275;0.558170;0.555295;0.547967;0.547225;0.540691;0.540615;0.539207;0.538268;0.535601;0.529391;0.523916;0.528079;0.523513;0.519593;0.522587;0.522015;0.520475;0.520257;0.513596;0.514218;0.513490;0.509772;0.508613;0.510396;0.510595;0.510041;0.510117
0.503062;0.500942;0.502337;0.505386;0.501196;0.503988;0.503175;0.505566;0.503669;0.507803;0.510640;0.506047;0.512415;0.504215;0.506164;0.507940;0.509391;0.509306;0.512992;0.513477;0.512067;0.513258;0.509102;0.512649;0.513028;0.516909;0.511082;0.513695;0.518899;0.517118;0.516899;0.516421;0.510620;0.515470;0.518791;0.515438;0.521187;0.524455;0.523047;0.525186;0.522381;0.525176;0.522020;0.525552;0.529210;0.526180;0.530341;0.526623;0.530935;0.534238;0.539288;0.538620;0.533694;0.540228;0.543241;0.540583;0.542067;0.546417;0.548280;0.545215;0.547478;0.545824;0.550863;0.554727;0.551097;0.554602;0.560197;0.554182;0.555647;0.564697;0.565363;0.568867;0.571547;0.568723;0.573499;0.575021;0.582900;0.577834;0.585320;0.587457;0.585489;0.591093;0.593278;0.597491;0.597939;0.601309;0.603336;0.606470;0.606320;0.613785;0.613854;0.619313;0.620840;0.627394;0.628473;0.626903;0.635297;0.639338;0.642437;0.645523;0.644061;0.643981;0.657780;0.659966;0.663525;0.671142;0.672654;0.676226;0.682867;0.688276;0.690695;0.694862;0.694079;0.698168;0.710887;0.713537;0.717107;0.719636;0.722877;0.729107;0.738166;0.739105;0.745728;0.750434;0.757045;0.764496;0.766044;0.772388;0.773741;0.780135;0.788398;0.792090;0.800495;0.796010;0.806850;0.813429;0.816736;0.820849;0.825762;0.828670;0.838245;0.839585;0.844613;0.848446;0.847000;0.854408;0.856089;0.855383;0.861489;0.862009;0.865496;0.865114;0.858914;0.864698;0.867432;0.866836;0.868785;0.865751;0.858932;0.863544;0.859927;0.857532;0.858148;0.843293;0.844034;0.842326;0.832749;0.832706;0.824957;0.816124;0.810616;0.806911;0.798705;0.792341;0.783810;0.778483;0.774690;0.760457;0.753792;0.740777;0.737640;0.731569;0.722610;0.714285;0.703014;0.698824;0.692276;0.684691;0.672815;0.664920;0.654792;0.647667;0.638600;0.636359;0.628982;0.625305;0.610473;0.611201;0.601485;0.595972
0.572354;0.584588;0.583315;0.590011;0.599496;0.600862;0.608939;0.620829;0.620771;0.628380;0.629375;0.642595;0.649969;0.652082;0.660351;0.666844;0.672258;0.680424;0.684776;0.693308;0.699276;0.708874;0.712840;0.718765;0.721522;0.730507;0.737060;0.748287;0.750250;0.756095;0.761600;0.769379;0.767030;0.773342;0.773673;0.782726;0.782622;0.786969;0.786345;0.790143;0.794448;0.791019;0.792868;0.796163;0.797781;0.794491;0.795493;0.796481;0.793037;0.794770;0.790109;0.788602;0.787997;0.783785;0.780504;0.783949;0.773773;0.772022;0.764851;0.761515;0.760252;0.749984;0.756529;0.751382;0.746428;0.738726;0.741798;0.734369;0.727872;0.730487;0.717383;0.718033;0.718166;0.712397;0.707340;0.708759;0.703231;0.698794;0.699166;0.695963;0.691340;0.688351;0.688572;0.686414;0.683354;0.681652;0.680044;0.680023;0.673475;0.675224;0.672056;0.676489;0.673935;0.670902;0.674751;0.672726;0.662442;0.668624;0.674189;0.672297;0.668665;0.673107;0.668397;0.671393;0.667552;0.669018;0.669643;0.667315;0.665012;0.667014;0.665769;0.662926;0.664239;0.664671;0.666008;0.668388;0.659864;0.659553;0.658652;0.660810;0.655188;0.655792;0.652271;0.654661;0.651188;0.651365;0.648621;0.639696;0.639549;0.640152;0.634699;0.637700;0.632069;0.630466;0.625491;0.622216;0.619655;0.613801;0.612208;0.609535;0.611495;0.596579;0.598075;0.592066;0.589846;0.591681;0.586732;0.583185;0.578979;0.577203;0.576606;0.570363;0.564912;0.561120;0.568420;0.559083;0.554821;0.556440;0.550032;0.547619;0.548850;0.542450;0.543303;0.549060;0.539671;0.537385;0.534294;0.529297;0.525198;0.528742;0.520943;0.522616;0.523483;0.519377;0.521324;0.521379;0.520711;0.519907;0.516574;0.514897;0.510221;0.512236;0.510259;0.508646;0.509766;0.506791;0.504873;0.509308;0.505482;0.504338;0.505309;0.499529;0.503038;0.499733;0.502030;0.502660;0.502247;0.500571;0.502146;0.501212
0.504750;0.499395;0.502448;0.505533;0.501051;0.499316;0.505119;0.498018;0.496451;0.498964;0.505950;0.503070;0.505075;0.505130;0.502359;0.500847;0.504252;0.505516;0.506762;0.508162;0.503826;0.513064;0.507182;0.510552;0.511069;0.508104;0.510807;0.513495;0.515135;0.509813;0.515787;0.515985;0.518683;0.517725;0.518588;0.523286;0.526306;0.528463;0.524059;0.533938;0.535878;0.534152;0.535355;0.537200;0.546856;0.545138;0.548660;0.549251;0.551801;0.553532;0.557090;0.562954;0.569672;0.572382;0.575334;0.577373;0.578025;0.578452;0.584291;0.592468;0.596813;0.600431;0.599955;0.609535;0.610920;0.613896;0.618067;0.623253;0.632562;0.636016;0.641942;0.638950;0.649141;0.655064;0.652836;0.664084;0.669341;0.670423;0.680862;0.678477;0.690747;0.695501;0.696155;0.705098;0.711295;0.711016;0.722734;0.724496;0.730375;0.734899;0.737808;0.743405;0.745705;0.757267;0.757828;0.760892;0.767087;0.780567;0.783388;0.785567;0.792571;0.795564;0.798095;0.804507;0.804965;0.810023;0.811854;0.815978;0.823622;0.824113;0.830108;0.830459;0.833284;0.838759;0.841183;0.837292;0.839206;0.843397;0.839316;0.841395;0.840000;0.840076;0.841208;0.837719;0.837970;0.832518;0.831993;0.827190;0.829553;0.827532;0.829138;0.820134;0.820480;0.812987;0.806210;0.806046;0.800500;0.799602;0.792239;0.790898;0.781664;0.775258;0.773769;0.770036;0.762033;0.761136;0.754248;0.753411;0.743130;0.740907;0.732009;0.726308;0.722974;0.718510;0.712770;0.706850;0.698094;0.693492;0.692720;0.683191;0.677794;0.674460;0.674704;0.662300;0.660882;0.657516;0.647065;0.646507;0.636716;0.633273;0.630187;0.629704;0.621229;0.616246;0.613577;0.613804;0.602017;0.601337;0.597949;0.594643;0.587358;0.585422;0.581301;0.579904;0.576232;0.570685;0.564188;0.561669;0.559881;0.554710;0.550419;0.549335;0.546786;0.545587;0.540511;0.535642;0.536252;0.532674;0.531588;0.523803
0.501490;0.500647;0.504892;0.504438;0.503271;0.502217;0.505195;0.501395;0.502389;0.505271;0.499382;0.504996;0.500003;0.504980;0.503152;0.509401;0.505331;0.506794;0.509831;0.508334;0.507262;0.513638;0.505076;0.510747;0.512482;0.517134;0.512794;0.515459;0.514815;0.514203;0.520093;0.520594;0.522700;0.523061;0.518512;0.520415;0.522450;0.529139;0.532108;0.532332;0.536814;0.537484;0.541242;0.544607;0.542178;0.547954;0.549122;0.551235;0.561626;0.558771;0.562704;0.563322;0.568649;0.576422;0.572679;0.583099;0.584848;0.589942;0.592462;0.594215;0.597167;0.602624;0.603573;0.608355;0.615046;0.617839;0.618749;0.623689;0.626490;0.632907;0.636497;0.640306;0.644957;0.648061;0.652623;0.660301;0.661379;0.669291;0.669561;0.674878;0.682872;0.682358;0.690787;0.690118;0.697444;0.699936;0.703221;0.706033;0.710359;0.714186;0.721362;0.728080;0.729420;0.735990;0.737745;0.739624;0.739156;0.749511;0.748533;0.757613;0.759828;0.766015;0.772926;0.769932;0.774396;0.779135;0.775322;0.784856;0.784295;0.787584;0.787518;0.795326;0.795613;0.793569;0.800542;0.799791;0.799877;0.799607;0.802673;0.807005;0.803878;0.807080;0.807083;0.802967;0.801949;0.803000;0.804128;0.807150;0.801370;0.794711;0.800473;0.798614;0.798756;0.795825;0.795511;0.794831;0.785899;0.791728;0.785846;0.781285;0.775563;0.775118;0.769181;0.769125;0.769076;0.767345;0.757841;0.756799;0.751861;0.748760;0.744892;0.742287;0.743637;0.737235;0.730862;0.728290;0.721134;0.720477;0.713571;0.708366;0.704340;0.699535;0.693726;0.693798;0.683164;0.683887;0.682178;0.671616;0.668560;0.669784;0.657407;0.650806;0.652255;0.642712;0.635683;0.637984;0.634716;0.626337;0.619601;0.616510;0.610123;0.599065;0.602175;0.595176;0.586986;0.587111;0.585493;0.580250;0.572907;0.566735;0.569741;0.563423;0.556354;0.553737;0.552718;0.546285;0.544553;0.541201;0.541256;0.532656
0.570139;0.577140;0.577850;0.585546;0.587629;0.596045;0.604514;0.614940;0.616888;0.621366;0.623316;0.635276;0.636408;0.651287;0.656273;0.664768;0.664842;0.674656;0.683479;0.684650;0.694579;0.699584;0.711491;0.714958;0.724770;0.735545;0.733417;0.738983;0.748610;0.747842;0.762800;0.769863;0.770060;0.776202;0.781063;0.790721;0.786700;0.786941;0.800270;0.792185;0.808413;0.804161;0.814977;0.811449;0.814609;0.814202;0.813135;0.818708;0.815669;0.820100;0.819375;0.822217;0.822518;0.823137;0.815498;0.818493;0.818233;0.815420;0.815043;0.815329;0.815026;0.810436;0.804943;0.799224;0.800706;0.805292;0.799728;0.796850;0.794418;0.788872;0.789446;0.781203;0.779228;0.780920;0.779727;0.776770;0.763347;0.766318;0.759343;0.756141;0.754269;0.747278;0.743619;0.739233;0.742034;0.728725;0.727822;0.721221;0.721821;0.713785;0.718844;0.711088;0.704585;0.698506;0.694535;0.690070;0.684667;0.684513;0.682067;0.672566;0.674226;0.663007;0.662699;0.652441;0.651367;0.648679;0.647336;0.640160;0.639158;0.636002;0.627789;0.629338;0.621770;0.620633;0.615753;0.611281;0.608318;0.605616;0.603521;0.602583;0.598716;0.595132;0.591053;0.587355;0.594316;0.586228;0.581054;0.581076;0.578856;0.579313;0.578741;0.575999;0.576333;0.570386;0.570571;0.570832;0.566086;0.565382;0.569059;0.562612;0.564268;0.559010;0.566094;0.560136;0.563217;0.557919;0.554172;0.555519;0.554990;0.558581;0.556730;0.548289;0.551240;0.551032;0.553204;0.550558;0.544067;0.547741;0.551387;0.548170;0.541878;0.541117;0.541444;0.543923;0.544874;0.540797;0.540300;0.542321;0.539448;0.533685;0.533958;0.532372;0.531524;0.535322;0.533009;0.531830;0.531791;0.526618;0.529138;0.528089;0.524670;0.521592;0.529323;0.524831;0.525692;0.524889;0.519671;0.522476;0.518474;0.518932;0.515463;0.513808;0.511112;0.516678;0.510840;0.513047;0.513676;0.510304;0.518206;0.510126
0.598518;0.610156;0.610816;0.622620;0.626490;0.630515;0.640256;0.648687;0.654640;0.664611;0.675317;0.681316;0.692817;0.698209;0.703553;0.716992;0.723223;0.735574;0.749219;0.748090;0.764508;0.768948;0.779889;0.782757;0.790018;0.797315;0.806039;0.811889;0.816154;0.828726;0.834763;0.838264;0.844362;0.852032;0.853814;0.854394;0.860886;0.863569;0.864042;0.865735;0.869949;0.864464;0.867812;0.865238;0.865654;0.859835;0.860230;0.855051;0.856772;0.849100;0.847702;0.838074;0.840875;0.828931;0.827767;0.821045;0.815097;0.812118;0.804242;0.796160;0.788551;0.785829;0.776080;0.771018;0.763906;0.755332;0.748748;0.738135;0.736363;0.728109;0.717547;0.715424;0.704535;0.692571;0.692104;0.687494;0.679708;0.678060;0.676524;0.663484;0.657098;0.659335;0.649719;0.650586;0.645218;0.638262;0.632474;0.635887;0.631152;0.632376;0.623642;0.621889;0.627183;0.624160;0.621601;0.623057;0.618247;0.617731;0.614547;0.613957;0.615088;0.618243;0.618251;0.611367;0.616046;0.615975;0.613155;0.615015;0.614785;0.611149;0.615078;0.612646;0.612216;0.613270;0.613090;0.613626;0.609819;0.611581;0.612470;0.612177;0.610914;0.610104;0.614155;0.601157;0.610416;0.607648;0.602433;0.603676;0.602833;0.602947;0.600041;0.598544;0.594186;0.591330;0.591804;0.589489;0.593452;0.592090;0.591495;0.585648;0.579212;0.581474;0.579831;0.574078;0.578058;0.571623;0.575459;0.571800;0.572850;0.567040;0.569591;0.565502;0.562100;0.560564;0.558320;0.555015;0.554095;0.553746;0.552472;0.548889;0.546415;0.547352;0.549527;0.541007;0.545728;0.540303;0.538982;0.536525;0.538708;0.538861;0.533222;0.533872;0.531038;0.531374;0.532444;0.534050;0.528518;0.529644;0.528804;0.526743;0.521009;0.525043;0.523773;0.520806;0.523492;0.522534;0.523376;0.524814;0.518792;0.519246;0.512136;0.516776;0.515229;0.516912;0.514843;0.514642;0.510702;0.511424;0.516199;0.512936
0.594098;0.602977;0.607196;0.613949;0.622789;0.623956;0.631704;0.647505;0.653834;0.658475;0.665442;0.672451;0.678499;0.694020;0.702963;0.706003;0.720031;0.727509;0.733067;0.741841;0.750938;0.756911;0.762288;0.773805;0.783340;0.790529;0.796687;0.804623;0.805242;0.813082;0.818439;0.823011;0.831571;0.834554;0.839029;0.838440;0.843339;0.845102;0.846630;0.851935;0.851006;0.854215;0.846783;0.855640;0.844555;0.846698;0.842101;0.839385;0.839934;0.833277;0.832790;0.829142;0.821649;0.816834;0.808299;0.807956;0.801472;0.791733;0.783379;0.782046;0.770594;0.767125;0.757662;0.749731;0.744408;0.734641;0.728926;0.721713;0.712202;0.708041;0.702914;0.699186;0.693866;0.685181;0.676402;0.672547;0.664654;0.658979;0.654785;0.650069;0.648495;0.640174;0.636421;0.632690;0.626831;0.622616;0.622557;0.619544;0.617119;0.617812;0.616650;0.607949;0.604298;0.612461;0.605153;0.602814;0.601581;0.606153;0.602985;0.604406;0.601744;0.598871;0.597943;0.595235;0.596782;0.595391;0.596414;0.598142;0.596182;0.595332;0.597973;0.591357;0.597550;0.596785;0.600184;0.604256;0.597548;0.594596;0.595323;0.599781;0.594983;0.594168;0.595667;0.598822;0.595975;0.601958;0.596621;0.601358;0.596390;0.594979;0.590974;0.589964;0.594363;0.591964;0.591533;0.591700;0.592397;0.587913;0.595376;0.590303;0.584761;0.582926;0.580771;0.581532;0.582902;0.580669;0.583990;0.577184;0.580467;0.577580;0.574897;0.574835;0.570707;0.569104;0.569565;0.568265;0.567368;0.567163;0.567135;0.562835;0.559098;0.558796;0.557561;0.562117;0.556972;0.552253;0.555219;0.551367;0.552395;0.552205;0.547816;0.545162;0.540597;0.539631;0.541299;0.539979;0.536509;0.536776;0.533945;0.532880;0.530500;0.523985;0.526952;0.530184;0.525385;0.519554;0.520141;0.518384;0.517963;0.516406;0.515581;0.511117;0.511577;0.509617;0.508319;0.508609;0.511605;0.510980;0.511156;0.507304
